ECG,insulin,CGM,body_temp,RSP,date
1.128634402209152,0.013933333333333336,165.7939493687905,97.25106601410772,0.007110174222921325,2022-05-23 00:00:00
1.0176133875288307,0.013933333333333336,161.58202232204695,98.16097348032648,0.03320714747808365,2022-05-23 00:00:01
0.7438249913705209,0.013933333333333336,159.23937324662245,96.00034312445203,0.05909850713574293,2022-05-23 00:00:02
0.3968818249431214,0.013933333333333336,157.47270951030134,96.90699771789552,0.08472490629530005,2022-05-23 00:00:03
0.07394265988789173,0.013933333333333336,156.1089502355738,96.44026767245134,0.11002739070164655,2022-05-23 00:00:04
-0.1689376209936174,0.013933333333333336,154.97501455537625,96.2770157843064,0.13494759372227327,2022-05-23 00:00:05
-0.30917306450545823,0.013933333333333336,153.89782161722894,96.55878063413302,0.15942792971374617,2022-05-23 00:00:06
-0.3506502606809304,0.013933333333333336,152.70429058588803,97.03668218112914,0.18341178524754573,2022-05-23 00:00:07
-0.319864422821647,0.013933333333333336,151.22134064452325,97.19030242269201,0.20684370767113217,2022-05-23 00:00:08
-0.25157967205088505,0.013933333333333336,149.31128956144778,97.61645020201007,0.2296695904874052,2022-05-23 00:00:09
-0.17837023111706918,0.013933333333333336,147.04884652306302,97.25758354320989,0.25183685504444475,2022-05-23 00:00:10
-0.11977625638766703,0.013933333333333336,144.82730783254465,98.05565850119028,0.27329462803753424,2022-05-23 00:00:11
-0.08198915668333703,0.013933333333333336,143.11076694017203,96.61335674919455,0.29399391433694616,2022-05-23 00:00:12
-0.059327760491847785,0.013933333333333336,142.36331730736268,98.63435230917284,0.31388776466778007,2022-05-23 00:00:13
-0.04532568875412585,0.013933333333333336,142.97394152620524,96.08216277959377,0.3329314376822549,2022-05-23 00:00:14
-0.0354794272205762,0.013933333333333336,144.88095692708504,98.01140253053521,0.3510825559802266,2022-05-23 00:00:15
-0.026462472830998052,0.013933333333333336,147.3466829423464,97.25191440710138,0.36830125565028937,2022-05-23 00:00:16
-0.016173714175162217,0.013933333333333336,149.48321724986678,97.67606948533725,0.3845503289215796,2022-05-23 00:00:17
-0.003737431492811102,0.013933333333333336,150.4026575269161,96.4211608157857,0.399795359535282,2022-05-23 00:00:18
0.010523855917695408,0.013933333333333336,149.3326799441412,96.59430446725463,0.41400485046479657,2022-05-23 00:00:19
0.02649666979362515,0.013933333333333336,146.1944316432974,98.4022337060266,0.42715034363449217,2022-05-23 00:00:20
0.04450329662729341,0.013933333333333336,141.94926622341876,98.90478472715819,0.43920444992224367,2022-05-23 00:00:21
0.06458582332630602,0.013933333333333336,137.78969426834107,96.94027253447773,0.4501307840613906,2022-05-23 00:00:22
0.08670398095779151,0.013933333333333336,134.90822635385112,98.07696784700794,0.4598918415980455,2022-05-23 00:00:23
0.11073402397478464,0.013933333333333336,134.36719464332194,98.62916745688811,0.4684535431767237,2022-05-23 00:00:24
0.13646872858316209,0.013933333333333336,136.4478608696313,98.68381999051154,0.47578531629675497,2022-05-23 00:00:25
0.16361739274164228,0.013933333333333336,140.25988112419157,96.25513263410933,0.48186016095859274,2022-05-23 00:00:26
0.19180583616178487,0.013933333333333336,144.65255468086582,96.11716434969864,0.4866547055181468,2022-05-23 00:00:27
0.22067413652552959,0.013933333333333336,148.47518080265309,96.5094912586937,0.49014925259604536,2022-05-23 00:00:28
0.24972355186886575,0.013933333333333336,150.68368951305533,98.63442751028823,0.4923278149159927,2022-05-23 00:00:29
0.2781812359215141,0.013933333333333336,150.87379545358033,96.29504050149914,0.49317814097399304,2022-05-23 00:00:30
0.30532665922781144,0.013933333333333336,149.60089019832787,97.26332287501516,0.492691730468081,2022-05-23 00:00:31
0.33049712743368975,0.013933333333333336,147.63362685359675,98.8736685904515,0.4908638394462694,2022-05-23 00:00:32
0.35308778128667617,0.013933333333333336,145.74065851509658,97.59949585491906,0.48769347515860145,2022-05-23 00:00:33
0.3725515966358926,0.013933333333333336,144.6243943924332,98.07563134185142,0.48318338062742033,2022-05-23 00:00:34
0.3883993844320562,0.013933333333333336,144.58978043043834,96.9465468930182,0.4773400089781452,2022-05-23 00:00:35
0.40019979072747863,0.013933333333333336,145.34556768214702,98.05950278304475,0.47017348760091393,2022-05-23 00:00:36
0.40757929667606746,0.013933333333333336,146.46801943983093,98.50387701569213,0.46169757224132013,2022-05-23 00:00:37
0.41022221853332447,0.013933333333333336,147.5333989870494,96.05486483203258,0.4519295911460817,2022-05-23 00:00:38
0.4075270906326086,0.013933333333333336,148.1559368131856,98.2504329448349,0.4408903794167308,2022-05-23 00:00:39
0.3994843749007024,0.013933333333333336,148.17766668427052,98.96658326671948,0.428604203751259,2022-05-23 00:00:40
0.38675720241509426,0.013933333333333336,147.78232728568014,98.24449696313951,0.4150996696423101,2022-05-23 00:00:41
0.36998656129883994,0.013933333333333336,147.22959172415543,96.84133197619322,0.4004165721688492,2022-05-23 00:00:42
0.3497914060575517,0.013933333333333336,146.77913310016356,98.36783798535447,0.3846012986819277,2022-05-23 00:00:43
0.326769955634592,0.013933333333333336,146.69062450839334,96.30967801973293,0.3677032500259231,2022-05-23 00:00:44
0.3014997421209706,0.013933333333333336,147.22373903824374,97.34368057852771,0.3497747462774273,2022-05-23 00:00:45
0.2745376107553464,0.013933333333333336,148.638149774304,98.72578650927929,0.3308708990250812,2022-05-23 00:00:46
0.24641971992402675,0.013933333333333336,151.1935297968224,96.88084244512103,0.311049475998068,2022-05-23 00:00:47
0.21766154116096761,0.013933333333333336,155.14955218216164,96.86332601575904,0.2903707584143086,2022-05-23 00:00:48
0.1887578591477729,0.013933333333333336,156.3421676107588,96.39008571635483,0.2688973914393609,2022-05-23 00:00:49
0.16018277171369574,0.013933333333333336,150.47302614459056,96.0581008736109,0.24669422816590306,2022-05-23 00:00:50
0.13238968983563723,0.013933333333333336,146.2130078032552,98.03650659881967,0.22382816754143936,2022-05-23 00:00:51
0.10581133763814704,0.013933333333333336,143.31887584650946,96.63488434800017,0.20036798668846328,2022-05-23 00:00:52
0.08085975239342379,0.013933333333333336,141.54739353225946,96.79663997811667,0.1763841680766724,2022-05-23 00:00:53
0.05792628452131399,0.013933333333333336,140.6553241169133,97.47471947784102,0.15194872202094387,2022-05-23 00:00:54
0.03737945492221205,0.013933333333333336,140.39943085571485,96.16008763535125,0.12713500499159472,2022-05-23 00:00:55
0.01938439186547266,0.013933333333333336,140.53647700305882,97.72235281647603,0.10201753423492141,2022-05-23 00:00:56
0.003779402807661805,0.013933333333333336,140.82322581278657,96.44018572471742,0.07667179921213536,2022-05-23 00:00:57
-0.009623510530499294,0.013933333333333336,141.01644053846348,97.76791661070985,0.05117407037352293,2022-05-23 00:00:58
-0.02100577692075595,0.013933333333333336,140.90485491254586,98.0992750800628,0.025601205791968965,2022-05-23 00:00:59
-0.030542255627318948,0.013933333333333336,140.46902554116227,96.30700328648348,3.0456185850402313e-05,2022-05-23 00:01:00
-0.03840135735652229,0.013933333333333336,139.977243341061,97.24216796345871,-0.02546138505607464,2022-05-23 00:01:01
-0.04474661367247308,0.013933333333333336,139.76174018745996,98.08320047318324,-0.05080666360939437,2022-05-23 00:01:02
-0.04973622939332472,0.013933333333333336,140.15474795642024,97.2425378085807,-0.07594464080904069,2022-05-23 00:01:03
-0.05352186859478588,0.013933333333333336,141.43864548931526,96.14986037683826,-0.10081512615566675,2022-05-23 00:01:04
-0.05624862584503082,0.013933333333333336,143.59669341446508,97.60768921774654,-0.1253585167725243,2022-05-23 00:01:05
-0.05805502620470011,0.013933333333333336,146.16347504016593,97.99138393565937,-0.14951599077194114,2022-05-23 00:01:06
-0.05907302522690002,0.013933333333333336,148.5738676047538,97.54466733617492,-0.1732296984811586,2022-05-23 00:01:07
-0.0594280089572025,0.013933333333333336,150.26274834813037,98.83378426797243,-0.19644295100339876,2022-05-23 00:01:08
-0.059238793933645784,0.013933333333333336,150.72731818432862,97.75966512150598,-0.21910040559732233,2022-05-23 00:01:09
-0.05861762718673388,0.013933333333333336,149.83872006391283,98.71020574586365,-0.24114824736677087,2022-05-23 00:01:10
-0.05767018623943672,0.013933333333333336,148.0290099914439,96.41242411243871,-0.2625343667627887,2022-05-23 00:01:11
-0.05649557910718977,0.013933333333333336,145.8548913183171,96.41782904175227,-0.28320853241141014,2022-05-23 00:01:12
-0.05514257258843635,0.013933333333333336,143.873067397898,98.42217386612857,-0.3031225587934962,2022-05-23 00:01:13
-0.053508677388977716,0.013933333333333336,142.58883874553038,97.1930305109566,-0.3222304683170268,2022-05-23 00:01:14
-0.05147001042441446,0.013933333333333336,142.1990888383664,96.49606259135079,-0.34048864733761935,2022-05-23 00:01:15
-0.04885916492409743,0.013933333333333336,142.43807559527266,98.7825257411881,-0.3578559956996298,2022-05-23 00:01:16
-0.04546314467901557,0.013933333333333336,142.93725125715014,97.04329757923652,-0.3742940693879554,2022-05-23 00:01:17
-0.04102336404179562,0.013933333333333336,143.32806806703596,98.25243630940847,-0.3897672158995422,2022-05-23 00:01:18
-0.035235647926702224,0.013933333333333336,143.2770697521067,98.17799395605135,-0.4042427019635521,2022-05-23 00:01:19
-0.027750231809637923,0.013933333333333336,142.66134893364423,98.64991827361743,-0.41769083326011486,2022-05-23 00:01:20
-0.018171626218201866,0.013933333333333336,141.6738215730117,97.87101662116683,-0.4300847229924695,2022-05-23 00:01:21
-0.006055254356520405,0.013933333333333336,140.5775865977013,98.25282730208201,-0.44139202570942054,2022-05-23 00:01:22
0.009093445309940863,0.013933333333333336,139.63574293733868,97.04669502593353,-0.4515731756945287,2022-05-23 00:01:23
0.02768358802204479,0.013933333333333336,139.0917457074629,96.80978367529508,-0.46059104171126053,2022-05-23 00:01:24
0.04964175542019006,0.013933333333333336,139.07118712848393,98.6876586545882,-0.468411999295549,2022-05-23 00:01:25
0.07458795898953083,0.013933333333333336,139.52286507704605,97.28427356961389,-0.4750059964844508,2022-05-23 00:01:26
0.10190090834659969,0.013933333333333336,140.35628979943337,98.89452014144516,-0.4803466096704787,2022-05-23 00:01:27
0.13071801123930732,0.013933333333333336,141.48097154394986,97.99032449345535,-0.48441108951086415,2022-05-23 00:01:28
0.15993537354694273,0.013933333333333336,142.8041132490265,97.86508716062737,-0.48718039676591457,2022-05-23 00:01:29
0.18820779928017256,0.013933333333333336,144.21907398388242,96.34423791886013,-0.4886392279682371,2022-05-23 00:01:30
0.21394879058104224,0.013933333333333336,145.59844701290578,98.84846777612121,-0.48877603085246973,2022-05-23 00:01:31
0.23533054772297507,0.013933333333333336,146.81021097864246,97.34973640043982,-0.48758300950322825,2022-05-23 00:01:32
0.25044988192638296,0.013933333333333336,147.72234452547838,97.73516884316139,-0.4850561192071592,2022-05-23 00:01:33
0.25837613365104084,0.013933333333333336,148.20282629959854,97.22441040828384,-0.4811950510232086,2022-05-23 00:01:34
0.25878371191454835,0.013933333333333336,148.11963494894536,96.71108094072909,-0.476003206113399,2022-05-23 00:01:35
0.25173581621726115,0.013933333333333336,147.3407491231756,98.71013856168676,-0.46948765990447133,2022-05-23 00:01:36
0.23769543718152236,0.013933333333333336,145.73414747361716,97.72103846001686,-0.46165911617862226,2022-05-23 00:01:37
0.21752535655166322,0.013933333333333336,143.1678086532247,96.00861098109348,-0.45253185121917283,2022-05-23 00:01:38
0.1924881471940033,0.013933333333333336,141.65609261110905,97.85143474086217,-0.44212364816425853,2022-05-23 00:01:39
0.16424617309684938,0.013933333333333336,143.6749952674475,96.97993470531628,-0.4304557217484738,2022-05-23 00:01:40
0.13484881551583758,0.013933333333333336,145.74845062065765,97.58117430677282,-0.41755272488070794,2022-05-23 00:01:41
0.10566900889991354,0.013933333333333336,147.82077530257266,98.65782629793232,-0.4034470459135631,2022-05-23 00:01:42
0.0781948601611011,0.013933333333333336,149.83628594642954,97.0718092800075,-0.388180653821703,2022-05-23 00:01:43
0.053806933554531935,0.013933333333333336,151.7392991868246,98.7256054527594,-0.37179905333366686,2022-05-23 00:01:44
0.033098327327034764,0.013933333333333336,153.47413165966952,97.8700803473754,-0.35435066841020835,2022-05-23 00:01:45
0.015874673717133476,0.013933333333333336,154.98510000214753,96.04746372853967,-0.3358867145241307,2022-05-23 00:01:46
0.0011541389550490362,0.013933333333333336,156.21652085267033,98.78831170123128,-0.3164610632887777,2022-05-23 00:01:47
-0.012832576737302127,0.013933333333333336,157.11271085083538,98.07269075255077,-0.29613009980623256,2022-05-23 00:01:48
-0.02861036847917362,0.013933333333333336,157.63334307261348,98.99196855135445,-0.2749525731262151,2022-05-23 00:01:49
-0.049774651179333385,0.013933333333333336,157.83022920645496,96.51702152503599,-0.252989440225565,2022-05-23 00:01:50
-0.08287857537726002,0.013933333333333336,157.89338885893756,96.41140724888663,-0.23030370393594798,2022-05-23 00:01:51
-0.12746324922160868,0.013933333333333336,158.0435545081198,98.7977863891115,-0.20696024526401963,2022-05-23 00:01:52
-0.1735787949810262,0.013933333333333336,158.5014586330428,98.0904544844697,-0.18302565056363937,2022-05-23 00:01:53
-0.2020088165315029,0.013933333333333336,159.45248435545403,96.19800051816618,-0.1585680340338455,2022-05-23 00:01:54
-0.18908222847160333,0.013933333333333336,160.86991864858066,98.2663891578074,-0.13365685602911698,2022-05-23 00:01:55
-0.10059231701881306,0.013933333333333336,162.4089042623794,98.26162856538375,-0.10836273767991306,2022-05-23 00:01:56
0.0810890867990281,0.013933333333333336,163.65388523116548,98.76907360663945,-0.08275727233160483,2022-05-23 00:01:57
0.34868601689227835,0.013933333333333336,164.18930559005332,98.13457427588541,-0.0569128343186412,2022-05-23 00:01:58
0.6702044715498787,0.013933333333333336,163.64994202314966,96.37281288591649,-0.030902385598069848,2022-05-23 00:01:59
0.9754587470923163,0.013933333333333336,161.97256710465498,96.05964040151939,-0.004799280772427866,2022-05-23 00:02:00
1.1510967739316693,0.013933333333333336,159.5469472435127,96.07863296063316,0.021322934990801408,2022-05-23 00:02:01
1.1335600557038676,0.013933333333333336,156.86351414578854,96.08491946406238,0.047391540344401295,2022-05-23 00:02:02
0.9251387116956473,0.013933333333333336,154.41269951818623,96.73863320280914,0.07333476591071668,2022-05-23 00:02:03
0.5966218400351493,0.013933333333333336,152.63856513439993,98.58008384604867,0.09908024570629138,2022-05-23 00:02:04
0.2540244602806349,0.013933333333333336,151.70695316699545,97.61649319302497,0.12455612719414123,2022-05-23 00:02:05
-0.02715530782015131,0.013933333333333336,151.36637638652863,97.6584659360573,0.1496913388263573,2022-05-23 00:02:06
-0.20856164501974322,0.013933333333333336,151.27260769684426,98.52609267707882,0.17441578126994622,2022-05-23 00:02:07
-0.2781935590278869,0.013933333333333336,151.08142000228614,96.37251994535973,0.1986605159678933,2022-05-23 00:02:08
-0.269120162453973,0.013933333333333336,150.48063870329656,96.83755103703342,0.22235795051862378,2022-05-23 00:02:09
-0.21741884005462261,0.013933333333333336,149.3504041745156,97.75727781437486,0.24544202036574247,2022-05-23 00:02:10
-0.1508263554399289,0.013933333333333336,147.85932925163172,98.90878724495903,0.26784836630005915,2022-05-23 00:02:11
-0.08873885107345962,0.013933333333333336,146.24013176198594,97.68309065776712,0.2895145072873713,2022-05-23 00:02:12
-0.042211848272254084,0.013933333333333336,144.72552953330043,96.05594186811882,0.310380008148304,2022-05-23 00:02:13
-0.013886749955181896,0.013933333333333336,143.53319181460134,98.40189801804185,0.3303866416306012,2022-05-23 00:02:14
0.0030270206247673464,0.013933333333333336,142.79049638091726,96.69892282152306,0.34947854442964504,2022-05-23 00:02:15
0.014440822659609167,0.013933333333333336,142.48938379609143,98.42131558685634,0.3676023667295549,2022-05-23 00:02:16
0.0237759404835493,0.013933333333333336,142.5916974661557,97.16358193219251,0.3847074148549921,2022-05-23 00:02:17
0.03349251531914237,0.013933333333333336,143.05928079742466,98.59062556367829,0.4007457866426675,2022-05-23 00:02:18
0.04508954527729264,0.013933333333333336,143.84840622440436,98.24136492821155,0.41567249916150634,2022-05-23 00:02:19
0.05910488535725369,0.013933333333333336,144.8819203494059,97.66872070197125,0.42944560843140284,2022-05-23 00:02:20
0.07512203478791964,0.013933333333333336,146.03253102630774,96.40936567698205,0.4420263212534948,2022-05-23 00:02:21
0.09291259361858047,0.013933333333333336,147.1618041650571,96.17975306853664,0.4533795794901028,2022-05-23 00:02:22
0.11280667953261742,0.013933333333333336,148.13130567580285,96.36403036722221,0.4634750734696885,2022-05-23 00:02:23
0.13479496082261724,0.013933333333333336,148.80260146888122,96.13365563563428,0.47228617845905235,2022-05-23 00:02:24
0.1587792477983088,0.013933333333333336,149.03725745480182,96.32248238731827,0.4797897765798087,2022-05-23 00:02:25
0.18457249278656243,0.013933333333333336,148.69683954423454,96.67712801582357,0.4859663224546962,2022-05-23 00:02:26
0.21189879013139032,0.013933333333333336,147.64291364799698,98.13896694114803,0.4907998990619093,2022-05-23 00:02:27
0.24039337619394638,0.013933333333333336,145.73704567704218,97.67915094616242,0.49427826364436134,2022-05-23 00:02:28
0.2696026293525265,0.013933333333333336,144.030843980403,96.03766794047735,0.4963928835480416,2022-05-23 00:02:29
0.29909976825884454,0.013933333333333336,143.94613695234244,96.21592283906845,0.4971389618912389,2022-05-23 00:02:30
0.3283360430504325,0.013933333333333336,143.7549268463007,98.90182899000082,0.49651545299427313,2022-05-23 00:02:31
0.35646958722357314,0.013933333333333336,143.46902295713775,97.70430138575982,0.49452506752744174,2022-05-23 00:02:32
0.3827358518649145,0.013933333333333336,143.10023457979582,96.60987970398297,0.4911742673630731,2022-05-23 00:02:33
0.40645433849091916,0.013933333333333336,142.66037100929006,96.75697723371097,0.4864732501457952,2022-05-23 00:02:34
0.4270285990478657,0.013933333333333336,142.16124154069956,98.23147756222528,0.4804359236233121,2022-05-23 00:02:35
0.443946235911847,0.013933333333333336,141.61465546915915,96.58628844332796,0.47307986980804684,2022-05-23 00:02:36
0.45677890188877224,0.013933333333333336,141.03242208985105,97.74407678181977,0.4644262990678777,2022-05-23 00:02:37
0.4651823002143648,0.013933333333333336,140.42635069799735,98.91005996726494,0.45449999427180743,2022-05-23 00:02:38
0.46889618455416365,0.013933333333333336,139.80763071281058,98.5404864044701,0.44332924514365324,2022-05-23 00:02:39
0.4677443590035234,0.013933333333333336,139.18373229727644,96.71954327744275,0.4309457730036918,2022-05-23 00:02:40
0.46147730285487526,0.013933333333333336,138.55654673002118,97.4813091428062,0.41738464610453696,2022-05-23 00:02:41
0.4500869149079095,0.013933333333333336,137.9267255375996,97.85986715514414,0.40268395399528306,2022-05-23 00:02:42
0.4342573596629009,0.013933333333333336,137.29492024657276,98.48694269865054,0.3868840169856635,2022-05-23 00:02:43
0.41467027506079873,0.013933333333333336,136.66746425495438,96.47037418393825,0.3700282951513137,2022-05-23 00:02:44
0.3919829692082548,0.013933333333333336,136.0847821894647,96.05572860653223,0.3521632926769262,2022-05-23 00:02:45
0.36682812208890225,0.013933333333333336,135.63843551988128,96.21006643115767,0.3333383053756368,2022-05-23 00:02:46
0.3398137852850719,0.013933333333333336,135.4313494588705,97.4590353328111,0.3136052852011236,2022-05-23 00:02:47
0.31152338197778967,0.013933333333333336,135.56644921907926,97.81898838496,0.293018697595801,2022-05-23 00:02:48
0.2825157069467805,0.013933333333333336,136.12565624026763,97.70655431125944,0.2716353719497227,2022-05-23 00:02:49
0.253324926570466,0.013933333333333336,137.06486932498868,96.95208722796649,0.24951434558006086,2022-05-23 00:02:50
0.22446057882596424,0.013933333333333336,138.15095331999535,98.96584846323735,0.22671670165881477,2022-05-23 00:02:51
0.1964075732890914,0.013933333333333336,139.1087655262786,97.7392356577374,0.20330540153297277,2022-05-23 00:02:52
0.16962619113435973,1.5694916666666665,139.66316732204552,97.14042351787064,0.17934511189672764,2022-05-23 00:02:53
0.1445520851349792,0.013933333333333336,139.57277736120142,97.6528446573537,0.15490202728944982,2022-05-23 00:02:54
0.12159627966285638,0.013933333333333336,138.79911769881784,98.2360032927195,0.13004368840595154,2022-05-23 00:02:55
0.10104623567359228,0.013933333333333336,137.61046482364964,98.00769868035955,0.10483879671702435,2022-05-23 00:02:56
0.08285330877121093,0.013933333333333336,136.34929375260134,96.79475867298842,0.07935702590837394,2022-05-23 00:02:57
0.06690326057074145,0.013933333333333336,135.3640967133519,96.19900450328532,0.053668830654781285,2022-05-23 00:02:58
0.05307507499804581,0.013933333333333336,134.98378662855941,97.11025259374232,0.027845253253626637,2022-05-23 00:02:59
0.04124095050713557,0.013933333333333336,135.40355679193777,97.88915252106469,0.0019577286477818197,2022-05-23 00:03:00
0.03126630008017117,0.013933333333333336,136.61630739516232,96.63052202974451,-0.023922111627715934,2022-05-23 00:03:01
0.023009938421427734,0.013933333333333336,138.5637040089344,98.25826666121644,-0.049722905382965206,2022-05-23 00:03:02
0.01632506734384828,0.013933333333333336,141.18013800708593,96.19960944406235,-0.07537517419461587,2022-05-23 00:03:03
0.01105855624655114,0.013933333333333336,144.3857238182331,96.78094529573562,-0.10081048417001555,2022-05-23 00:03:04
0.007050490029883959,0.013933333333333336,148.04670650664724,98.41426369123003,-0.12596099043923356,2022-05-23 00:03:05
0.00413416812234377,0.013933333333333336,151.95223379314797,96.58030284786999,-0.15075962912141438,2022-05-23 00:03:06
0.0021361044805769825,0.013933333333333336,155.87296267616784,97.91838264263983,-0.17514030855061619,2022-05-23 00:03:07
0.0008760275893790995,0.013933333333333336,159.57848607776583,97.5740109273712,-0.19903809783687934,2022-05-23 00:03:08
0.00016688046169512582,0.013933333333333336,162.85258378066126,98.77442391119806,-0.22238941224568126,2022-05-23 00:03:09
-0.00013944529490968367,0.013933333333333336,165.56595731472692,96.78989031146133,-0.2451321948876803,2022-05-23 00:03:10
-1.2390731305301833e-05,0.013933333333333336,167.71996890621477,96.19788327205207,-0.2672060942207385,2022-05-23 00:03:11
0.00045454719086870606,0.013933333333333336,169.34607341784738,98.20519788986601,-0.28855263687770605,2022-05-23 00:03:12
0.0012007571820006296,0.013933333333333336,170.47722084087428,98.31653408862974,-0.3091153953462625,2022-05-23 00:03:13
0.0022236515145111022,0.013933333333333336,171.14800017684388,98.72344755751057,-0.3288401500412045,2022-05-23 00:03:14
0.0035786660228527252,0.013933333333333336,171.39470974026466,98.79591620759051,-0.3476750453249665,2022-05-23 00:03:15
0.0053792601035106144,0.013933333333333336,171.25536994708722,96.04185471892679,-0.36557073904872145,2022-05-23 00:03:16
0.0077969167150017645,0.013933333333333336,170.76969202260545,96.70308625836427,-0.38248054520418334,2022-05-23 00:03:17
0.011061142377875786,0.013933333333333336,169.97901372174113,97.85033507100498,-0.3983605692951167,2022-05-23 00:03:18
0.015459467174714197,0.013933333333333336,169.32945994895695,98.84704896206284,-0.4131698360574994,2022-05-23 00:03:19
0.021337444750130764,0.013933333333333336,169.01252146903397,98.85052835774124,-0.4268704091782789,2022-05-23 00:03:20
0.029098652310771855,0.013933333333333336,167.82301277262914,97.66995956458547,-0.4394275026845722,2022-05-23 00:03:21
0.03920449073695423,0.013933333333333336,166.01121775287982,98.74681904929882,-0.45080919399063774,2022-05-23 00:03:22
0.05227552821629606,0.013933333333333336,163.82849386706812,97.92469862683902,-0.460983209772679,2022-05-23 00:03:23
0.06930195725774947,0.013933333333333336,161.52714953182445,97.17002314242374,-0.4699184202217356,2022-05-23 00:03:24
0.08999134866247514,0.013933333333333336,159.36032456548642,97.45797200129073,-0.47758682266811636,2022-05-23 00:03:25
0.11373508118333896,0.013933333333333336,157.5818753759097,97.81293144875993,-0.48396395950803267,2022-05-23 00:03:26
0.13982229022138093,0.013933333333333336,156.44626613321162,97.64864376452569,-0.4890290014931523,2022-05-23 00:03:27
0.1674398678258216,0.013933333333333336,156.20846679014844,98.77854428011936,-0.4927647936398618,2022-05-23 00:03:28
0.1956724626940543,0.013933333333333336,157.07937478299237,98.75620030690082,-0.4951578910676233,2022-05-23 00:03:29
0.22350248017165397,0.013933333333333336,159.0033095519272,97.18462683877067,-0.4961985846681992,2022-05-23 00:03:30
0.24981008225236723,0.013933333333333336,161.5244823141409,98.88978758532214,-0.4958809165353823,2022-05-23 00:03:31
0.2733731875781223,0.013933333333333336,164.09831080575967,96.5218670000414,-0.49420268511294335,2022-05-23 00:03:32
0.2928674714390204,0.013933333333333336,166.18032298252882,96.37898855831891,-0.4911654400466839,2022-05-23 00:03:33
0.3068663657733429,0.013933333333333336,167.27221404937143,96.4052374741402,-0.4867744667547049,2022-05-23 00:03:34
0.31384105916754534,2.254758333333333,167.1523638734159,97.51698649703069,-0.48103876075818414,2022-05-23 00:03:35
0.31220088297404597,0.013933333333333336,166.01424241631292,96.06457441582259,-0.4739709918430167,2022-05-23 00:03:36
0.30187597751959333,0.013933333333333336,164.14479049840833,98.84391063365304,-0.46558745815055547,2022-05-23 00:03:37
0.28464910803123283,0.013933333333333336,161.83511169053875,98.4813464135122,-0.45590803032327515,2022-05-23 00:03:38
0.262271816909172,0.013933333333333336,159.36701772221522,96.04505694222637,-0.44495608585846735,2022-05-23 00:03:39
0.23636620918206522,0.013933333333333336,156.9357261477462,96.52858876672516,-0.4327584338498808,2022-05-23 00:03:40
0.2084249525070219,0.013933333333333336,154.6016522952267,96.99619072310051,-0.41934523032360355,2022-05-23 00:03:41
0.17981149371514876,0.013933333333333336,152.39382279530818,96.39299053443276,-0.4047501100500877,2022-05-23 00:03:42
0.15176311713040808,0.013933333333333336,150.3359138699484,98.42847207637975,-0.38901327069074476,2022-05-23 00:03:43
0.12539020856894445,0.013933333333333336,148.460411335292,97.03420995804989,-0.37218059446411533,2022-05-23 00:03:44
0.10167378282414677,0.013933333333333336,146.88974211455152,98.8203224470001,-0.3543009519592761,2022-05-23 00:03:45
0.08146482821180802,0.013933333333333336,145.8858699117588,97.74604253984124,-0.3354260052773482,2022-05-23 00:03:46
0.06488431928720274,0.013933333333333336,145.73776365519495,98.63649595323554,-0.3156100726599973,2022-05-23 00:03:47
0.05022592434876527,0.013933333333333336,146.73021153747047,98.53420333617666,-0.2949099858376265,2022-05-23 00:03:48
0.03493518141334667,0.013933333333333336,149.0879615795542,98.71617695612595,-0.27338494048827683,2022-05-23 00:03:49
0.015799073496824634,0.013933333333333336,152.6913106234202,97.37964079745042,-0.2510963402171057,2022-05-23 00:03:50
-0.011053971385890838,0.013933333333333336,156.9057159006474,97.63904044806112,-0.2281076344841029,2022-05-23 00:03:51
-0.050089065661058856,0.013933333333333336,160.9822290924314,98.39581077345612,-0.20448415092424263,2022-05-23 00:03:52
-0.09847495920228536,0.013933333333333336,164.17227060840165,96.85715655520244,-0.18029292251970247,2022-05-23 00:03:53
-0.13791188901473936,0.013933333333333336,165.80347356593307,97.47076056785978,-0.1556025100978453,2022-05-23 00:03:54
-0.1458657685142005,0.013933333333333336,165.65704922702997,97.79733092293763,-0.13048282064146746,2022-05-23 00:03:55
-0.09693295336576808,0.013933333333333336,164.19423102492084,96.04659982665251,-0.1050049219093486,2022-05-23 00:03:56
0.0352981079235895,0.013933333333333336,162.02853154538215,97.78044422458991,-0.0792408538751819,2022-05-23 00:03:57
0.26171617959441096,0.013933333333333336,159.7749852436575,97.30102904696838,-0.0532634375017366,2022-05-23 00:03:58
0.5638209692690486,0.013933333333333336,158.0027246425475,98.42208158665453,-0.027146081374377726,2022-05-23 00:03:59
0.885471955309364,0.013933333333333336,156.99777698989547,96.94573440928612,-0.0009625867239671106,2022-05-23 00:04:00
1.1322529388708098,0.013933333333333336,156.62069898706906,98.67866612557546,0.025213048626472365,2022-05-23 00:04:01
1.1992620265715723,0.013933333333333336,156.63853483419666,97.7335716458536,0.05130690814923882,2022-05-23 00:04:02
1.0705114707583123,0.013933333333333336,156.81958535109263,96.55203060488239,0.07724743617981072,2022-05-23 00:04:03
0.7865230858051139,0.013933333333333336,156.93329774662647,98.36378770147651,0.1029657577182181,2022-05-23 00:04:04
0.4283519910192323,0.013933333333333336,156.75014994024912,97.83609353113481,0.12839335018265743,2022-05-23 00:04:05
0.11183194931859111,0.013933333333333336,156.04153319875988,96.16172781622126,0.153462330190013,2022-05-23 00:04:06
-0.1065391223869309,0.013933333333333336,154.57963606174826,97.2605810400034,0.17810578618264686,2022-05-23 00:04:07
-0.22090947526377844,0.013933333333333336,152.13733185150494,98.03720650969629,0.20225796737889515,2022-05-23 00:04:08
-0.24073597123499146,0.013933333333333336,149.49201339381727,98.75580533393257,0.22585446915254,2022-05-23 00:04:09
-0.19480453514064097,0.013933333333333336,147.71506913777282,96.00120607467407,0.24883241472253725,2022-05-23 00:04:10
-0.12224422672091395,0.013933333333333336,145.28181081453874,98.93027744709318,0.27113063265505194,2022-05-23 00:04:11
-0.051855797318050206,0.013933333333333336,142.33238815859346,97.12974094423733,0.29268982969123414,2022-05-23 00:04:12
0.00021886865363556613,0.013933333333333336,139.007171696115,98.92135061507497,0.31345275842706477,2022-05-23 00:04:13
0.03126519793408391,0.013933333333333336,135.4466833976871,97.81414830292216,0.33336437938563906,2022-05-23 00:04:14
0.04960989826344243,0.013933333333333336,131.79153520614653,98.48653742394208,0.35237201703769494,2022-05-23 00:04:15
0.06152911128654122,0.013933333333333336,128.18237513375828,97.7241345141243,0.3704255093427032,2022-05-23 00:04:16
0.07116293404349039,0.013933333333333336,124.75984052573051,97.88422859492205,0.3874773504006805,2022-05-23 00:04:17
0.08125198533653102,0.013933333333333336,121.66451801246475,96.85672884508708,0.40348282582369194,2022-05-23 00:04:18
0.09307918779121042,0.013933333333333336,119.02102777835177,97.76050002196826,0.41840014045601454,2022-05-23 00:04:19
0.10660384106573806,0.013933333333333336,116.858586016456,98.25006529110797,0.4321905380928978,2022-05-23 00:04:20
0.12198481051364198,0.013933333333333336,115.06333558764524,98.57494150928713,0.44481841286975865,2022-05-23 00:04:21
0.13942274975998473,0.013933333333333336,113.4894978434055,98.26524656540305,0.45625137849017366,2022-05-23 00:04:22
0.1589711074850781,0.013933333333333336,111.99111474431947,98.09417174534191,0.4664585077674069,2022-05-23 00:04:23
0.18060730953043938,0.013933333333333336,110.43648383557168,98.5934382901638,0.4754094480118688,2022-05-23 00:04:24
0.20422996311048652,0.013933333333333336,108.78042584586953,96.96804299051024,0.4830771155109703,2022-05-23 00:04:25
0.22965860289893059,0.013933333333333336,107.10754494712691,98.01236637236276,0.48943799905324853,2022-05-23 00:04:26
0.2566861520552545,0.013933333333333336,105.53065673724319,97.35262180924005,0.49447221578269485,2022-05-23 00:04:27
0.2850953983197972,0.013933333333333336,104.16118844486184,97.14630825609456,0.4981635571080204,2022-05-23 00:04:28
0.31423201614702945,0.013933333333333336,103.09644349202088,97.23243404976655,0.5004995245410119,2022-05-23 00:04:29
0.3434156365897709,0.013933333333333336,102.3604140899507,97.20443875040863,0.5014713553657559,2022-05-23 00:04:30
0.3719871207331469,0.013933333333333336,101.8686093574533,96.95215183787484,0.5010740380683696,2022-05-23 00:04:31
0.3993085596945979,0.013933333333333336,101.51073920496569,97.86575810376091,0.49930631748494814,2022-05-23 00:04:32
0.4247632746238701,0.013933333333333336,101.1777744078698,97.29074181246379,0.4961706896536175,2022-05-23 00:04:33
0.44775581670302467,0.013933333333333336,100.77432769304875,98.92140623378175,0.4916733863848029,2022-05-23 00:04:34
0.4677119671464289,0.013933333333333336,100.2634173830537,98.03340267430293,0.4858243495920064,2022-05-23 00:04:35
0.4840787372007645,0.013933333333333336,99.69192099632545,96.59570966528133,0.4786371954534479,2022-05-23 00:04:36
0.49632436814501946,0.013933333333333336,99.12876452743373,97.2801030280441,0.47012916850280423,2022-05-23 00:04:37
0.5039383312904957,0.013933333333333336,98.64581157850486,97.03003871932327,0.46032108577487457,2022-05-23 00:04:38
0.5061855138626324,0.013933333333333336,98.30314456864272,98.3929164118757,0.4492372711592748,2022-05-23 00:04:39
0.5029371431048981,0.013933333333333336,98.08275658000838,98.6399948656903,0.4369054801420778,2022-05-23 00:04:40
0.49469929796201473,0.013933333333333336,97.84863710716752,98.71152586747911,0.4233568151416967,2022-05-23 00:04:41
0.48198397935946585,0.013933333333333336,97.43713661599261,97.98815943712579,0.40862564307618676,2022-05-23 00:04:42
0.465308413073459,0.013933333333333336,96.68265882350978,96.81062478608928,0.39275149947223975,2022-05-23 00:04:43
0.4451948413744444,0.013933333333333336,95.44319243309782,96.75710010451377,0.3757812779641007,2022-05-23 00:04:44
0.4221704216784011,0.013933333333333336,93.72844064623536,98.5646938280922,0.3577652175279327,2022-05-23 00:04:45
0.3967669923775821,0.013933333333333336,91.77681231876414,97.58314393892624,0.3387561324049481,2022-05-23 00:04:46
0.3695217266847187,0.013933333333333336,89.87632418951401,98.4064832520138,0.31880947281172567,2022-05-23 00:04:47
0.3409771998747599,0.013933333333333336,88.31359423093181,97.71746555157482,0.29798320245358717,2022-05-23 00:04:48
0.3116813892848605,0.013933333333333336,87.34273795587893,98.19942757586253,0.27633764898348595,2022-05-23 00:04:49
0.28218767431439307,0.013933333333333336,87.02894549672938,97.55703488239217,0.25393534798150025,2022-05-23 00:04:50
0.25305483642493654,0.013933333333333336,87.15469630588156,98.31265173150567,0.23084088088253055,2022-05-23 00:04:51
0.22484705914028666,0.3750416666666667,87.44315494727317,97.70657397211414,0.2071207072964691,2022-05-23 00:04:52
0.19813392804644667,0.013933333333333336,87.63596592715597,97.39712963577594,0.18284299218041106,2022-05-23 00:04:53
0.17349043079163556,0.013933333333333336,87.49088914152543,97.02806672385985,0.15807742833663263,2022-05-23 00:04:54
0.15132568156696535,0.013933333333333336,86.74763801162624,96.20462804525012,0.13289505472284593,2022-05-23 00:04:55
0.13153664010361296,0.013933333333333336,85.12902599143605,97.1337725379843,0.1073680710727491,2022-05-23 00:04:56
0.11405446585753878,0.013933333333333336,82.34785202382058,96.23887823309475,0.08156964933494766,2022-05-23 00:04:57
0.09879903643841746,0.013933333333333336,78.11134028962358,98.94845134119133,0.05557374244712931,2022-05-23 00:04:58
0.08567352683619099,0.013933333333333336,75.39967243428617,96.54483855399229,0.029454890969574897,2022-05-23 00:04:59
0.07456440942107391,0.013933333333333336,77.90365388595758,98.43557609316161,0.0032880281080603603,2022-05-23 00:05:00
0.06534145394354911,0.013933333333333336,80.27786100205583,98.6248849348677,-0.022851716339474724,2022-05-23 00:05:01
0.05785772728825629,0.013933333333333336,82.46413756313893,98.06523975715783,-0.0488892134002569,2022-05-23 00:05:02
0.05194911843423888,0.013933333333333336,84.405594777419,97.70848323823613,-0.07475112422654828,2022-05-23 00:05:03
0.04743334765776591,0.013933333333333336,86.04679453841482,96.48291431044683,-0.10036941808208999,2022-05-23 00:05:04
0.0441111508256174,0.013933333333333336,87.33380927758584,97.40064006828992,-0.1256775966346187,2022-05-23 00:05:05
0.041766561184843856,0.013933333333333336,88.21420402647698,97.03551615346565,-0.15060994254094273,2022-05-23 00:05:06
0.04016690936276604,0.013933333333333336,88.6369709785662,96.67511987344226,-0.1751017106727856,2022-05-23 00:05:07
0.03917525755978341,0.013933333333333336,88.55243662985612,97.77753560629739,-0.19908931667785087,2022-05-23 00:05:08
0.03875297782940664,0.013933333333333336,87.93090831694568,96.93680951310576,-0.2225105223592798,2022-05-23 00:05:09
0.03874407877912637,0.013933333333333336,86.85632952590035,98.74891666040506,-0.24530461736540016,2022-05-23 00:05:10
0.0390428743921822,0.013933333333333336,85.58242813311675,98.72890657485468,-0.26741259669173245,2022-05-23 00:05:11
0.03959641397182533,0.013933333333333336,84.40133250453931,96.77135488134658,-0.2887773335087968,2022-05-23 00:05:12
0.04040448214131866,0.013933333333333336,83.60596101760079,96.33267390223209,-0.30934374684193455,2022-05-23 00:05:13
0.04151959884393713,0.013933333333333336,83.45467500936046,96.57888819605733,-0.32905896364360776,2022-05-23 00:05:14
0.04304701934296702,0.013933333333333336,83.99493726367353,97.49875251203666,-0.34787247481391553,2022-05-23 00:05:15
0.04514473422170626,0.013933333333333336,84.95747592745361,98.18575700392378,-0.36573628474169545,2022-05-23 00:05:16
0.04802346938346459,0.013933333333333336,86.00295166148028,96.62458331522637,-0.3826050539563267,2022-05-23 00:05:17
0.05194668605156374,0.013933333333333336,86.79236538461623,96.74410067513169,-0.39843623449923754,2022-05-23 00:05:18
0.05722811446111272,0.013933333333333336,87.02605309427932,98.5550156248091,-0.413190197644071,2022-05-23 00:05:19
0.06404928657766132,0.013933333333333336,86.63907569833158,97.24754615480258,-0.42683035361543903,2022-05-23 00:05:20
0.0730599998063475,0.013933333333333336,85.91823729483188,97.85005520146571,-0.43932326297812235,2022-05-23 00:05:21
0.08497212563267914,0.013933333333333336,85.22773443394912,96.70099841771776,-0.450638739391411,2022-05-23 00:05:22
0.1002242199950182,0.013933333333333336,84.93025186843784,96.30590177827739,-0.4607488834767837,2022-05-23 00:05:23
0.11898236497526768,0.013933333333333336,85.34879271851318,97.54757105090559,-0.4696244426057342,2022-05-23 00:05:24
0.14113951991448864,0.013933333333333336,86.57829201781556,97.43142296114935,-0.4772382296124228,2022-05-23 00:05:25
0.16631608111941032,0.013933333333333336,88.37381707592786,96.4580149322795,-0.48356591427180806,2022-05-23 00:05:26
0.19385935506151292,0.013933333333333336,90.41682322119571,97.86541869522125,-0.48858645917153615,2022-05-23 00:05:27
0.22284309582331965,0.013933333333333336,92.39179880120918,97.63203035644182,-0.49228249923532696,2022-05-23 00:05:28
0.25222705792488015,0.013933333333333336,94.03428915978759,97.96241204091223,-0.494640379489977,2022-05-23 00:05:29
0.2803486458765174,0.013933333333333336,95.36985787455211,96.43363662037397,-0.4956501807345822,2022-05-23 00:05:30
0.30493120211860025,0.013933333333333336,96.85696429634791,98.25458345140574,-0.4953057349702694,2022-05-23 00:05:31
0.3241673274279023,0.013933333333333336,99.05081562799404,96.66614741939976,-0.4936046305481431,2022-05-23 00:05:32
0.3367445675183191,0.013933333333333336,102.50686789062188,97.5580554730981,-0.49054820702133856,2022-05-23 00:05:33
0.3418454130408753,0.013933333333333336,107.67158001496028,98.35588808466485,-0.4861415397152912,2022-05-23 00:05:34
0.3391472995837199,0.013933333333333336,114.33841312822497,96.06699128397541,-0.48039341405851177,2022-05-23 00:05:35
0.3288226076721283,0.013933333333333336,121.32143685301699,96.97308737917857,-0.47331628974422996,2022-05-23 00:05:36
0.3115386627685009,0.013933333333333336,127.21636289517127,98.61876712920034,-0.4649262548211317,2022-05-23 00:05:37
0.2881708229810075,0.013933333333333336,130.61799676345248,98.53412882280621,-0.4552429698390267,2022-05-23 00:05:38
0.26051172177748644,0.013933333333333336,130.2642978365586,97.61532177778363,-0.44428960220253894,2022-05-23 00:05:39
0.2308393145445252,0.013933333333333336,125.7565540999972,98.59982482249954,-0.4320927509127521,2022-05-23 00:05:40
0.20101545401750975,0.013933333333333336,117.9915312384654,98.84941797406088,-0.41868236190308744,2022-05-23 00:05:41
0.17248411235934702,0.013933333333333336,108.15341836756906,98.47922099288803,-0.4040916342014721,2022-05-23 00:05:42
0.1462713074547448,0.013933333333333336,97.42587771953814,98.56234633150962,-0.3883576445071796,2022-05-23 00:05:43
0.122984684892962,0.013933333333333336,86.99213126623914,96.29623020546104,-0.3715253608142327,2022-05-23 00:05:44
0.10281380845715174,0.013933333333333336,78.03504002061455,97.95391299702297,-0.3536446561310145,2022-05-23 00:05:45
0.0855303607539602,0.013933333333333336,71.73717488506364,98.11055096445796,-0.33476820093851917,2022-05-23 00:05:46
0.07086421079009951,0.013933333333333336,69.28087874208634,97.83072243793988,-0.314951321858278,2022-05-23 00:05:47
0.05772301287459094,0.013933333333333336,71.84832000144705,98.39884578520808,-0.2942518590005695,2022-05-23 00:05:48
0.036924746755446894,0.013933333333333336,75.90794972228866,96.1037136596149,-0.27273001642329836,2022-05-23 00:05:49
0.0035850640319844236,0.013933333333333336,75.27145071428546,98.31071620366494,-0.25044820611150026,2022-05-23 00:05:50
-0.040735804032427665,0.013933333333333336,74.84243252118583,98.19518580221857,-0.22747088590502748,2022-05-23 00:05:51
-0.08803304651035725,0.013933333333333336,74.62644563804601,96.77909517989507,-0.2038643918187273,2022-05-23 00:05:52
-0.12524511460196294,0.013933333333333336,74.62902708563364,96.77120789646644,-0.17969676521464908,2022-05-23 00:05:53
-0.12940422275067415,0.013933333333333336,74.85571590898016,97.89690995229039,-0.15503757530002246,2022-05-23 00:05:54
-0.05692792363494172,0.013933333333333336,75.31206438571863,97.03589238477325,-0.1299577374375164,2022-05-23 00:05:55
0.11297644604486355,0.013933333333333336,76.00364531181194,98.38976603402186,-0.10452932776577975,2022-05-23 00:05:56
0.37310586199496015,0.013933333333333336,76.93605564519542,97.33843869601037,-0.07882539463837576,2022-05-23 00:05:57
0.6882616123280977,0.013933333333333336,78.11491671839724,98.34824824435252,-0.052919767397942886,2022-05-23 00:05:58
0.9939660157046722,0.013933333333333336,79.54179731057705,98.97141535087152,-0.026886863009720628,2022-05-23 00:05:59
1.1849424853856532,0.013933333333333336,81.19383811004475,96.9007450186017,-0.0008014910844338355,2022-05-23 00:06:00
1.180079767919065,0.013933333333333336,83.0115210697349,96.42901748477429,0.025261342175019234,2022-05-23 00:06:01
0.9755369843774301,0.013933333333333336,84.92717503528391,98.70392530904782,0.051226630565742115,2022-05-23 00:06:02
0.6459442250847527,0.013933333333333336,86.87310997592063,97.62467813666213,0.07702015198950699,2022-05-23 00:06:03
0.3028530034416928,0.013933333333333336,88.77213159793914,98.92422111256525,0.10257404363071242,2022-05-23 00:06:04
0.02205714907979999,0.013933333333333336,90.49017325529576,97.90981320000569,0.12782450218853897,2022-05-23 00:06:05
-0.1562404509322818,0.013933333333333336,91.8078701913821,98.98173907383143,0.15270812539378326,2022-05-23 00:06:06
-0.22818465862464468,0.013933333333333336,92.48684255052528,97.63821241242886,0.17716167638701846,2022-05-23 00:06:07
-0.2149374310784552,0.013933333333333336,92.28862918765618,97.57927780171656,0.20112298846016805,2022-05-23 00:06:08
-0.1546175793849463,0.013933333333333336,91.01604125013452,96.40628370921651,0.22453124106059305,2022-05-23 00:06:09
-0.08279422496996457,2.208375,88.7199605544085,97.06711551295164,0.24732714148084126,2022-05-23 00:06:10
-0.021849458832689194,0.013933333333333336,85.8242757410155,96.07865570188912,0.2694531023606529,2022-05-23 00:06:11
0.01902165845438967,0.013933333333333336,82.83870297367352,96.48118553855895,0.29085341451476954,2022-05-23 00:06:12
0.04347562837342502,0.013933333333333336,80.27720894261496,98.23691157812249,0.31147441461274794,2022-05-23 00:06:13
0.058382138860809285,0.013933333333333336,78.61917035499684,96.09119906978637,0.3312646472512744,2022-05-23 00:06:14
0.06804079240904444,0.013933333333333336,78.11520056396435,97.09962929173123,0.3501750209746666,2022-05-23 00:06:15
0.07584486868272426,0.013933333333333336,78.67002661645196,98.58703875851413,0.36815895781598174,2022-05-23 00:06:16
0.08428933031274265,0.013933333333333336,80.1147185671104,98.07803315252207,0.3851725359488191,2022-05-23 00:06:17
0.09497082289629748,0.013933333333333336,82.2804552783775,98.0728264261985,0.4011746250588266,2022-05-23 00:06:18
0.10858767499688775,0.013933333333333336,84.99455012257923,96.56591040286594,0.41612701406386726,2022-05-23 00:06:19
0.12493989814431608,0.013933333333333336,88.08614528634749,97.32571284224527,0.429994530832773,2022-05-23 00:06:20
0.14303819305349347,0.013933333333333336,91.3909199763202,97.74473222203288,0.44274515357454497,2022-05-23 00:06:21
0.16303150526627805,0.013933333333333336,94.73945718882673,98.96925512299111,0.45435011359269084,2022-05-23 00:06:22
0.18515047158376216,0.013933333333333336,97.95508341110988,96.61171867569936,0.4647835115760249,2022-05-23 00:06:23
0.2092580895031657,0.013933333333333336,100.87584669004418,96.74319870528707,0.4740150462872155,2022-05-23 00:06:24
0.23511991263294943,0.013933333333333336,103.45805458331773,96.78651925131874,0.4820115206175338,2022-05-23 00:06:25
0.2624061164631676,0.013933333333333336,105.83887731853592,98.25051723989398,0.48874312222558436,2022-05-23 00:06:26
0.29069156076537617,0.013933333333333336,108.1947937444528,97.37092598230709,0.494183667125429,2022-05-23 00:06:27
0.31945578959262205,0.013933333333333336,110.70181903555724,96.17078831523328,0.4983106455958476,2022-05-23 00:06:28
0.34810390576447786,0.013933333333333336,113.5160481071409,97.52554872183072,0.5011052580186965,2022-05-23 00:06:29
0.37617765171006323,0.013933333333333336,116.67288843723037,96.63588049393103,0.5025524405481316,2022-05-23 00:06:30
0.4028280163297789,0.013933333333333336,120.02670179890691,98.39581273428063,0.5026408805403397,2022-05-23 00:06:31
0.42718378251671835,0.013933333333333336,123.3931415166968,96.89199414452182,0.5013630217014851,2022-05-23 00:06:32
0.4484972921077264,0.013933333333333336,126.58995806036648,96.08281803586351,0.49871505893976315,2022-05-23 00:06:33
0.46614444588339066,0.013933333333333336,129.43714141784506,97.78029734839386,0.4946969229356691,2022-05-23 00:06:34
0.47962470356805004,0.013933333333333336,131.75698370569887,98.53152128679356,0.48931225447277304,2022-05-23 00:06:35
0.48856108382978697,0.013933333333333336,133.3740772495823,97.14304837218664,0.48256836859936614,2022-05-23 00:06:36
0.4927001642804333,0.013933333333333336,134.1152615343632,98.24957493217843,0.4744762087191921,2022-05-23 00:06:37
0.4919120814755669,0.013933333333333336,133.809530688112,97.53342443489139,0.465050290737123,2022-05-23 00:06:38
0.4861905309145133,0.013933333333333336,133.24273785929876,97.62285541488657,0.45430863741284083,2022-05-23 00:06:39
0.4756527670403449,0.013933333333333336,133.70851661226146,98.87830296318526,0.44227270310248995,2022-05-23 00:06:40
0.46036131645731143,0.013933333333333336,134.1952377799504,98.41188267449594,0.42896728909455123,2022-05-23 00:06:41
0.440738638114982,0.013933333333333336,134.6938976926063,96.09696919987073,0.4144204497720109,2022-05-23 00:06:42
0.41759827218668794,0.013933333333333336,135.1968953538007,98.12816175369389,0.39866365127843306,2022-05-23 00:06:43
0.3917111690791975,0.013933333333333336,135.69786687917824,97.39500444469051,0.38173911246642567,2022-05-23 00:06:44
0.36380500636746177,0.013933333333333336,136.19152425978453,98.8426468241853,0.3637007684295457,2022-05-23 00:06:45
0.33456168231497285,0.013933333333333336,136.6735008229744,96.66429820297047,0.344605891052338,2022-05-23 00:06:46
0.3046170699842097,0.013933333333333336,137.14020513717358,96.8012160590531,0.3245150236935475,2022-05-23 00:06:47
0.274561069403719,0.013933333333333336,137.58868457586757,96.24442189463178,0.30349155809941114,2022-05-23 00:06:48
0.24493766924261876,0.013933333333333336,138.01365171392712,97.28585648599136,0.281601253318726,2022-05-23 00:06:49
0.21624494743468528,0.013933333333333336,138.3931311667809,96.32705629205721,0.25891207632741264,2022-05-23 00:06:50
0.18893507117835112,0.013933333333333336,138.67981257092063,97.90136028183575,0.23549403995621584,2022-05-23 00:06:51
0.16341429693671555,0.013933333333333336,138.82089036466425,98.40888971212121,0.21141903521087554,2022-05-23 00:06:52
0.1400430134644766,0.013933333333333336,138.76367608336534,98.09040148836054,0.1867606584443259,2022-05-23 00:06:53
0.1190672640926216,0.013933333333333336,138.46277568364806,98.29863414322732,0.16159403385468932,2022-05-23 00:06:54
0.10046052138408636,0.013933333333333336,137.91627705123864,97.02736235953056,0.13599563179551913,2022-05-23 00:06:55
0.08412978989691798,0.013933333333333336,137.1874460590105,98.53755444908303,0.11004308339635877,2022-05-23 00:06:56
0.06996843357375383,0.013933333333333336,136.353929161776,97.28630632499832,0.08381499200166107,2022-05-23 00:06:57
0.057856175741828525,0.013933333333333336,135.49321438704814,98.47202961123696,0.057390741944950426,2022-05-23 00:06:58
0.047659099112971365,0.013933333333333336,134.67062078138878,97.87948847587288,0.030850305182354015,2022-05-23 00:06:59
0.0392296457836097,0.013933333333333336,133.87937905109476,96.43026914601073,0.004274046315493328,2022-05-23 00:07:00
0.03240661723476368,0.013933333333333336,133.00467525104747,96.23516069956484,-0.022257473461845687,2022-05-23 00:07:01
0.027015174332049946,0.013933333333333336,131.9074869059395,96.05499792873903,-0.048663692955880626,2022-05-23 00:07:02
0.022866815343517363,0.013933333333333336,130.44852971982846,96.20017499291806,-0.07486432947882142,2022-05-23 00:07:03
0.019757966194117467,0.013933333333333336,128.51175588698914,97.37575144112529,-0.10078482814562348,2022-05-23 00:07:04
0.01746912560560119,0.013933333333333336,126.1218769238175,96.34002576830277,-0.12635974238219624,2022-05-23 00:07:05
0.015808137943817267,0.013933333333333336,123.51487870596159,96.08335004654602,-0.1515251697319422,2022-05-23 00:07:06
0.014757886362673351,0.013933333333333336,120.97348581925897,98.2645844441714,-0.17621817995317995,2022-05-23 00:07:07
0.014166974789580266,0.013933333333333336,118.78015446718484,97.18455144138191,-0.2003770035802081,2022-05-23 00:07:08
0.013910439505566856,0.013933333333333336,117.18668995236004,98.24081548682257,-0.22394121730276453,2022-05-23 00:07:09
0.0139198451269265,0.013933333333333336,116.26231467024598,97.35721448023935,-0.2468519256557658,2022-05-23 00:07:10
0.01418328460521655,0.013933333333333336,115.8025126168917,97.35026024100229,-0.2690519385213383,2022-05-23 00:07:11
0.014745379227258895,0.013933333333333336,115.54175187002215,97.4342175201535,-0.29048594395658806,2022-05-23 00:07:12
0.015707278615139018,0.013933333333333336,115.21426914659779,97.42201177968658,-0.3111006758734531,2022-05-23 00:07:13
0.017226660726206846,0.013933333333333336,114.58161202323828,98.40949002634251,-0.3308450761109933,2022-05-23 00:07:14
0.019517731853077,0.013933333333333336,113.57031198188264,97.20717755957321,-0.3496704504559027,2022-05-23 00:07:15
0.022851226623627142,0.013933333333333336,112.35449235625907,98.71405848103088,-0.36753061818361143,2022-05-23 00:07:16
0.02755440800099992,0.013933333333333336,111.16315001196601,96.1111831438621,-0.3843820547100939,2022-05-23 00:07:17
0.033968163368213365,0.013933333333333336,110.22510013883512,98.32162302816126,-0.40018402696337557,2022-05-23 00:07:18
0.04238074028249146,0.013933333333333336,109.74953009945742,96.37692414341322,-0.4148987211036926,2022-05-23 00:07:19
0.05355651674743449,0.013933333333333336,109.82872876038087,97.85554070073626,-0.4284913622422548,2022-05-23 00:07:20
0.06806006381442732,0.013933333333333336,110.37972774376492,96.0310927840057,-0.44093032583043584,2022-05-23 00:07:21
0.0861429807859644,0.013933333333333336,111.28050321175519,97.61588184772904,-0.4521872404141187,2022-05-23 00:07:22
0.10774389882166222,0.013933333333333336,112.40889692622284,96.00905386985879,-0.4622370676091727,2022-05-23 00:07:23
0.1324892967692709,0.013933333333333336,113.64262480551348,98.85358135647061,-0.47105505052449065,2022-05-23 00:07:24
0.15969453775768552,0.013933333333333336,114.85928512526021,98.71620610110834,-0.4786128041195712,2022-05-23 00:07:25
0.18836226956795912,0.013933333333333336,115.93636635296335,98.3879008258268,-0.48488453442299845,2022-05-23 00:07:26
0.21719305807790812,0.013933333333333336,116.75125461115702,98.74582295974436,-0.48984822701517206,2022-05-23 00:07:27
0.24483468014868937,0.013933333333333336,117.18124076826896,96.4366746934752,-0.4934858765355663,2022-05-23 00:07:28
0.269166474900525,0.013933333333333336,116.76925416150456,96.4731902096116,-0.49578323263482865,2022-05-23 00:07:29
0.2882131973065182,0.013933333333333336,115.24789213480264,96.56289501870731,-0.49672978073590723,2022-05-23 00:07:30
0.3005464828443633,0.013933333333333336,113.58782104709456,97.86748770689977,-0.49631875746378024,2022-05-23 00:07:31
0.30528484749634854,0.013933333333333336,111.80274240006793,98.71742848802491,-0.49454715579340375,2022-05-23 00:07:32
0.3020936877493549,0.013933333333333336,109.90629249461932,98.96986553507722,-0.4914157199017648,2022-05-23 00:07:33
0.2911852805948585,0.013933333333333336,107.91204742742522,98.13336737629744,-0.48692892973815,2022-05-23 00:07:34
0.273318783528929,0.013933333333333336,105.83352777774266,98.19540122742688,-0.4810949753549226,2022-05-23 00:07:35
0.24960186053826913,0.013933333333333336,103.68420299804049,98.72787961363277,-0.4739257210691624,2022-05-23 00:07:36
0.2216586664406548,0.013933333333333336,101.47749552235678,97.20262119711336,-0.46543665955340835,2022-05-23 00:07:37
0.19173038161709335,0.013933333333333336,99.22678460639375,96.74955204067511,-0.45564685598132176,2022-05-23 00:07:38
0.16167808103656553,0.013933333333333336,96.95270672903601,96.52029051236137,-0.44457888238137727,2022-05-23 00:07:39
0.1329531986217561,0.013933333333333336,94.71964301624102,96.3583711510012,-0.4322587423785096,2022-05-23 00:07:40
0.10659752724906366,0.013933333333333336,92.65761280658118,98.43783176409849,-0.4187157865299943,2022-05-23 00:07:41
0.0832432187485852,0.013933333333333336,90.91119884595098,96.44037712025172,-0.4039826184876075,2022-05-23 00:07:42
0.06311278373095419,0.013933333333333336,89.62495635993116,96.79289244818071,-0.38809499269167774,2022-05-23 00:07:43
0.04601839635376104,0.013933333333333336,88.92428561117319,98.4572675359006,-0.37109350308045924,2022-05-23 00:07:44
0.032119432787007275,0.013933333333333336,88.819784448675,96.93176175538262,-0.3530275569466214,2022-05-23 00:07:45
0.016790800133857975,0.013933333333333336,89.14986060747157,98.94725234787883,-0.3339505572706012,2022-05-23 00:07:46
-0.006618346916883482,0.013933333333333336,89.71464343240697,96.7999161064549,-0.313918563173374,2022-05-23 00:07:47
-0.04076067916450411,0.013933333333333336,90.3142456680476,97.60096003491364,-0.2929901472646508,2022-05-23 00:07:48
-0.08424329558819252,0.013933333333333336,90.76125156734088,96.94340103355755,-0.2712262461017818,2022-05-23 00:07:49
-0.1319613162100617,0.013933333333333336,90.94315034989432,98.73231849352152,-0.24869000416924159,2022-05-23 00:07:50
-0.16791693548255218,0.013933333333333336,90.85979676820294,97.0996699315537,-0.2254466118063226,2022-05-23 00:07:51
-0.15429194022952492,0.013933333333333336,90.53600773230377,97.3007769818195,-0.20156313752731245,2022-05-23 00:07:52
-0.06367560967249626,0.013933333333333336,89.99659025510786,97.53687807683508,-0.17710835519369908,2022-05-23 00:07:53
0.11602804875129258,0.013933333333333336,89.2717895885345,98.81665943210913,-0.1521525665121573,2022-05-23 00:07:54
0.381600299388923,0.013933333333333336,88.42452871811173,96.09284701881346,-0.1267674193447913,2022-05-23 00:07:55
0.7082428988706196,0.013933333333333336,87.56673701358787,98.15063599089507,-0.10102572232969363,2022-05-23 00:07:56
0.9976500449040303,0.013933333333333336,86.82115473366031,98.67305686287702,-0.07500125631986256,2022-05-23 00:07:57
1.1464782142287648,0.013933333333333336,86.3103026113844,96.0818616705524,-0.04876858315738198,2022-05-23 00:07:58
1.099210224154174,0.013933333333333336,86.13806672412844,97.56615374175753,-0.0224028523069281,2022-05-23 00:07:59
0.8593857688164451,0.013933333333333336,86.29860829576384,96.97796943531007,0.004020394121328624,2022-05-23 00:08:00
0.5224625062375404,0.013933333333333336,86.62182189734375,98.57846796259676,0.03042541742505682,2022-05-23 00:08:01
0.18714842910415075,0.013933333333333336,86.90089779408865,97.67554965276756,0.05673647890191444,2022-05-23 00:08:02
-0.07739458166849192,0.013933333333333336,86.92954218688956,98.07068360448824,0.08287803644173286,2022-05-23 00:08:03
-0.23621038421857482,0.013933333333333336,86.53015506458306,97.35856049985462,0.10877567840533418,2022-05-23 00:08:04
-0.29571231108371715,0.013933333333333336,85.69140400992927,97.88492711256407,0.1343591197488705,2022-05-23 00:08:05
-0.27770642952751007,0.013933333333333336,84.65044073296788,96.87029055506228,0.15955991620709048,2022-05-23 00:08:06
-0.21320815083333702,0.013933333333333336,83.70014637245914,96.02804573389955,0.1843106026649993,2022-05-23 00:08:07
-0.1405907907548569,0.013933333333333336,83.13379419749752,97.73026780496127,0.2085449506210146,2022-05-23 00:08:08
-0.08203597984715627,0.013933333333333336,83.21470198813597,96.9343326423974,0.23219812549163935,2022-05-23 00:08:09
-0.04222042675271115,0.013933333333333336,84.02577373247267,97.55180279550339,0.2552068212838773,2022-05-23 00:08:10
-0.019835418907863597,0.013933333333333336,85.37922176264837,98.74921755916169,0.27750943735192624,2022-05-23 00:08:11
-0.007802472283409207,0.013933333333333336,87.02685308886551,97.27942436550418,0.2990462512249779,2022-05-23 00:08:12
0.0014947736408536735,0.013933333333333336,88.72014847829412,96.74218810980716,0.3197595862870538,2022-05-23 00:08:13
0.01021240228433675,0.013933333333333336,90.21026984665514,97.11388128383716,0.33959397384929174,2022-05-23 00:08:14
0.019830691280408784,0.013933333333333336,91.24808492223394,98.79558334990962,0.3584963091704629,2022-05-23 00:08:15
0.031244479110241634,0.013933333333333336,91.5842009885527,98.81060514392728,0.37641600099808453,2022-05-23 00:08:16
0.044763165102807256,0.013933333333333336,90.96900216994973,98.53298984569714,0.39330511422021064,2022-05-23 00:08:17
0.06028137953354747,0.013933333333333336,89.15268671948655,98.76061954291698,0.4091185052369462,2022-05-23 00:08:18
0.07794807676511377,0.013933333333333336,88.66040780767509,96.68370086985395,0.42381394968060704,2022-05-23 00:08:19
0.0978187649522171,0.013933333333333336,92.30033785794575,96.26244662866077,0.43735226213448425,2022-05-23 00:08:20
0.11984922132717479,0.013933333333333336,94.97812735127329,96.68192920885407,0.4496974075220334,2022-05-23 00:08:21
0.1439029374442699,0.013933333333333336,96.86279061584955,96.94312984834215,0.4608166038612203,2022-05-23 00:08:22
0.16975111917974273,0.013933333333333336,98.12329632988025,96.52429762906894,0.47068041610234357,2022-05-23 00:08:23
0.1970712368131472,0.013933333333333336,98.9285847224608,97.82128248591738,0.4792627466797173,2022-05-23 00:08:24
0.22543816524086358,0.013933333333333336,99.44758167244336,97.24075924500349,0.4865403356921191,2022-05-23 00:08:25
0.2543373245710275,0.013933333333333336,99.84921003782526,98.44905453548164,0.4924932058190797,2022-05-23 00:08:26
0.2833421816522112,0.013933333333333336,100.30239852757023,96.55539119480709,0.4971050069294069,2022-05-23 00:08:27
0.3116910800785773,0.013933333333333336,100.9760883917801,98.10562958926893,0.5003630631566278,2022-05-23 00:08:28
0.3385434524116487,0.013933333333333336,102.01059763652827,96.72106687454742,0.5022584087373461,2022-05-23 00:08:29
0.3631469701292749,0.013933333333333336,103.37442137302892,97.72265726652257,0.5027858136804643,2022-05-23 00:08:30
0.3848375436256235,0.013933333333333336,104.77831161684979,97.04696279166237,0.501943799196916,2022-05-23 00:08:31
0.4030393222111931,0.013933333333333336,105.87576088078956,96.1708931984485,0.4997346428476127,2022-05-23 00:08:32
0.41726469411280476,0.013933333333333336,106.32028177418721,96.68644101288113,0.49616437339549657,2022-05-23 00:08:33
0.4271142864736037,0.013933333333333336,105.81005207937028,97.99230766606438,0.4912427553758098,2022-05-23 00:08:34
0.4322769653530602,0.013933333333333336,104.3111498061622,97.49175028008159,0.4849832634268693,2022-05-23 00:08:35
0.4325298357269679,0.013933333333333336,102.1914919008235,97.55704795222104,0.47740304645171266,2022-05-23 00:08:36
0.4276593264120643,0.013933333333333336,99.9082948532882,96.52416045032676,0.4685228817088329,2022-05-23 00:08:37
0.41744468483227276,0.013933333333333336,97.91877400962616,97.71214755463878,0.45836711895784527,2022-05-23 00:08:38
0.40249116632743714,0.013933333333333336,96.64573994346983,98.99026027562464,0.4469636148131805,2022-05-23 00:08:39
0.38348280623219155,0.013933333333333336,96.30560031327299,98.45050532637487,0.43434365748573145,2022-05-23 00:08:40
0.36108058875873184,0.013933333333333336,96.80516089254797,97.78311787149293,0.4205418821187237,2022-05-23 00:08:41
0.3359224469968203,0.013933333333333336,97.98241707899791,98.92796720499271,0.40559617694989214,2022-05-23 00:08:42
0.3086232629137834,0.013933333333333336,99.67535315382105,98.70468775400796,0.38954758055714045,2022-05-23 00:08:43
0.279775968575941,0.013933333333333336,101.71621968127923,97.78682380080794,0.3724400822891261,2022-05-23 00:08:44
0.2499624495396523,0.013933333333333336,103.90290796651172,96.09727897594337,0.35431962945836304,2022-05-23 00:08:45
0.21974892272925348,0.013933333333333336,105.98177822415343,96.28073128745244,0.33523436973710175,2022-05-23 00:08:46
0.18967866116374077,0.013933333333333336,107.68775035164461,96.19611514512668,0.3152350982945132,2022-05-23 00:08:47
0.1602716486141784,0.013933333333333336,108.75576391449368,97.35519944607442,0.29437511622847357,2022-05-23 00:08:48
0.13202420318607586,0.013933333333333336,108.95540316969812,97.12630449950358,0.27271006907389317,2022-05-23 00:08:49
0.10540949405950416,0.013933333333333336,108.26399257552224,98.92605010281086,0.2502978071877353,2022-05-23 00:08:50
0.08087763929209817,0.013933333333333336,106.9704553730758,96.50394987959885,0.22719822678179308,2022-05-23 00:08:51
0.058757166610611394,0.013933333333333336,105.4329922796752,98.91836277579796,0.20347310224285192,2022-05-23 00:08:52
0.039018103874975715,0.013933333333333336,104.00984799052125,98.30242460658904,0.1791859133048979,2022-05-23 00:08:53
0.02155242774967393,0.013933333333333336,103.03208238975289,98.47271351887349,0.1544016675470937,2022-05-23 00:08:54
0.006245739645684771,0.013933333333333336,102.66742203846871,97.897847450334,0.12918671870404475,2022-05-23 00:08:55
-0.00702273947075619,0.013933333333333336,102.83856991609707,98.00619831062019,0.10360858128634158,2022-05-23 00:08:56
-0.018380169078163366,0.013933333333333336,103.41381066859387,97.43064700056358,0.07773574201947878,2022-05-23 00:08:57
-0.027960089099796602,0.013933333333333336,104.26146713338838,96.03940907076921,0.051637468618034775,2022-05-23 00:08:58
-0.035902419903662,0.013933333333333336,105.25220299503047,97.05901825662548,0.025383616419180258,2022-05-23 00:08:59
-0.04235346230251252,0.013933333333333336,106.27054830733059,97.47621540448067,-0.0009555665944198952,2022-05-23 00:09:00
-0.047465897553846156,0.013933333333333336,107.22181341294255,98.19027363327031,-0.027309635847929135,2022-05-23 00:09:01
-0.051398787359908896,0.013933333333333336,108.01594522471012,97.40588502823833,-0.05360814676651451,2022-05-23 00:09:02
-0.05431757386769272,0.013933333333333336,108.56291248046566,97.37221474826829,-0.07978085136751464,2022-05-23 00:09:03
-0.05639454439818277,0.013933333333333336,108.77270272560351,96.41298822283682,-0.10575776972192898,2022-05-23 00:09:04
-0.05781665695038073,0.013933333333333336,108.5553195253527,96.03266620141044,-0.13146728694900003,2022-05-23 00:09:05
-0.05877747374941585,0.013933333333333336,107.82077992861457,98.27483478143098,-0.1568366541752793,2022-05-23 00:09:06
-0.05931550476323652,0.013933333333333336,106.47911219184047,96.95985851423303,-0.1817940320971292,2022-05-23 00:09:07
-0.059469929009711514,0.013933333333333336,104.44035376128883,98.95315035058053,-0.20626874218689387,2022-05-23 00:09:08
-0.05927703585356782,0.013933333333333336,102.71185786176764,96.66070267847746,-0.2301914520723569,2022-05-23 00:09:09
-0.05872117608404992,0.013933333333333336,102.97149021784742,97.01612407644504,-0.2534943572264819,2022-05-23 00:09:10
-0.057734761914919316,0.013933333333333336,104.22254940956583,97.57168840699839,-0.2761113584694348,2022-05-23 00:09:11
-0.05619826698445454,0.013933333333333336,106.21563444995806,98.2646743711816,-0.29797823479637636,2022-05-23 00:09:12
-0.05394022635545152,0.013933333333333336,108.70134687296601,97.39157335170088,-0.3190328110572855,2022-05-23 00:09:13
-0.05073723651522319,0.013933333333333336,111.43028995676816,96.37446762933503,-0.339215120029265,2022-05-23 00:09:14
-0.046313955375599736,0.013933333333333336,114.15306808814366,96.93750413547615,-0.35846755843705763,2022-05-23 00:09:15
-0.04034310227292782,0.013933333333333336,116.62028625010831,97.51355750910298,-0.3767350364941412,2022-05-23 00:09:16
-0.03244545796807291,0.013933333333333336,118.58254961635956,98.0215470240506,-0.39396512055453214,2022-05-23 00:09:17
-0.022189864646416146,0.013933333333333336,119.79046323748614,98.31044986893627,-0.4101081684843027,2022-05-23 00:09:18
-0.009093225917856352,0.013933333333333336,120.03532374193915,96.39100734286306,-0.42511745738173556,2022-05-23 00:09:19
0.0073660760644933595,0.013933333333333336,119.35257884936678,96.06874539396715,-0.43894930329608434,2022-05-23 00:09:20
0.027386431002735166,0.013933333333333336,118.14390306605102,97.55724696663597,-0.45156317261676826,2022-05-23 00:09:21
0.050708920704279396,0.013933333333333336,116.89235406032,98.42996613198724,-0.46292178482771845,2022-05-23 00:09:22
0.07680478421921351,0.013933333333333336,116.08098875841623,96.03781130108963,-0.472991206345199,2022-05-23 00:09:23
0.10487081326960519,0.013933333333333336,116.13661355040183,98.0174095339612,-0.48174105574953674,2022-05-23 00:09:24
0.13383180935825773,0.013933333333333336,117.14853534624265,98.06042467997098,-0.4891484207729534,2022-05-23 00:09:25
0.16234109601943947,0.013933333333333336,118.69981223782526,97.3477402607599,-0.49519872485823385,2022-05-23 00:09:26
0.18877765299925184,0.013933333333333336,120.26100211046167,98.7443660602258,-0.49988130225745264,2022-05-23 00:09:27
0.21124600601174878,0.013933333333333336,121.30266229748253,97.93308325427098,-0.5031891584369242,2022-05-23 00:09:28
0.22782228562852275,0.013933333333333336,121.35590049678478,96.01571951295439,-0.5051189670129926,2022-05-23 00:09:29
0.2373992956375219,0.013933333333333336,120.31512905830488,97.45328533654313,-0.5056711068682601,2022-05-23 00:09:30
0.23926784185625471,0.013933333333333336,118.61971759098103,98.5779534182928,-0.5048497073993917,2022-05-23 00:09:31
0.23324353432396502,0.013933333333333336,116.8301371550887,98.49119871011202,-0.5026626543530304,2022-05-23 00:09:32
0.2196796020102821,0.013933333333333336,115.50685866158015,97.94746259133743,-0.4991215846778486,2022-05-23 00:09:33
0.19946689281522562,0.013933333333333336,115.14629898934393,98.0210952716959,-0.4942418710948204,2022-05-23 00:09:34
0.17403387356919908,0.013933333333333336,115.86055124649285,97.7354987393676,-0.48804259642799463,2022-05-23 00:09:35
0.14529139100938193,0.013933333333333336,117.18522295476578,96.82235932550056,-0.48054651776613966,2022-05-23 00:09:36
0.11491794733270919,0.013933333333333336,118.52781386290559,97.68158997160818,-0.4717800205534777,2022-05-23 00:09:37
0.08473216141193417,0.013933333333333336,119.29582393915369,98.01518935445226,-0.4617730627353581,2022-05-23 00:09:38
0.056234034418108966,0.013933333333333336,118.96880016931101,97.05728889064923,-0.45055910911194347,2022-05-23 00:09:39
0.030428061056629922,0.013933333333333336,117.45857029723521,98.56748510176179,-0.4381750560798538,2022-05-23 00:09:40
0.007823229567232476,0.013933333333333336,115.32538308686296,96.58511245802612,-0.4246611469680481,2022-05-23 00:09:41
-0.011566978276000638,0.013933333333333336,113.27358121129942,98.24196243099577,-0.4100608781999947,2022-05-23 00:09:42
-0.028224587164651253,0.013933333333333336,112.00750782114937,96.86880823856063,-0.39442089653932544,2022-05-23 00:09:43
-0.04214106071313877,0.013933333333333336,112.15960534076649,98.32139786173255,-0.37779081010513416,2022-05-23 00:09:44
-0.058998021785300336,0.013933333333333336,113.93090929593114,97.28321198800823,-0.3602172392961083,2022-05-23 00:09:45
-0.08549414036376893,0.013933333333333336,116.8753446191494,98.42309522733663,-0.3417396375526534,2022-05-23 00:09:46
-0.12339649402886772,0.013933333333333336,120.40303436079364,97.06060458800397,-0.3223991566022478,2022-05-23 00:09:47
-0.16953062466048777,0.013933333333333336,123.92410219121896,96.64107971288874,-0.30223946166111476,2022-05-23 00:09:48
-0.21624081580636467,0.013933333333333336,126.89057581969647,98.3018535252653,-0.28130658189310864,2022-05-23 00:09:49
-0.24529091931748204,0.013933333333333336,129.00590402024451,96.92592584289196,-0.2596487543892064,2022-05-23 00:09:50
-0.21778180307451095,0.013933333333333336,130.35066684886098,98.19973520317929,-0.23731626209521656,2022-05-23 00:09:51
-0.10780930923482583,0.013933333333333336,131.08925183142244,98.23341945923319,-0.21436126613192735,2022-05-23 00:09:52
0.09254565312896584,0.013933333333333336,131.3860471617487,96.6641901027246,-0.19083763296733697,2022-05-23 00:09:53
0.37321710802904823,0.013933333333333336,131.4054417021868,96.64233641046195,-0.16680075691462043,2022-05-23 00:09:54
0.7005320933113627,0.013933333333333336,131.31182498168195,96.5968437702812,-0.1423073784423988,2022-05-23 00:09:55
0.9723417781443082,0.013933333333333336,131.26958719153302,96.42755501329754,-0.11741539879526318,2022-05-23 00:09:56
1.089185922237944,0.013933333333333336,131.44311917902525,97.131247797622,-0.09218369143272732,2022-05-23 00:09:57
1.0080364974503198,0.013933333333333336,131.9968124391231,96.07988365407486,-0.06667191080337162,2022-05-23 00:09:58
0.7483885866325599,0.013933333333333336,132.12393222662104,96.33276110710273,-0.04094029897838615,2022-05-23 00:09:59
0.4061151608590279,0.013933333333333336,130.80773411290517,98.02369207129023,-0.015049490674446537,2022-05-23 00:10:00
0.07510845773067756,0.013933333333333336,129.71688383287585,98.39932961069216,0.010939682799607196,2022-05-23 00:10:01
-0.18122808586636469,0.013933333333333336,128.96189303640315,96.24158858138516,0.03696639013493137,2022-05-23 00:10:02
-0.33260992424356256,0.013933333333333336,128.65327395625727,96.69510693145737,0.06296999661484691,2022-05-23 00:10:03
-0.3876822684934491,0.013933333333333336,128.90153939155655,96.62287698541144,0.08889023695206251,2022-05-23 00:10:04
-0.36843523797824995,0.013933333333333336,129.8172026903281,98.7520006892449,0.1146604471576162,2022-05-23 00:10:05
-0.30372986967940546,0.013933333333333336,131.51077773129916,98.13394355440946,0.14019799500489613,2022-05-23 00:10:06
-0.22899918368895694,0.013933333333333336,134.09277890502943,97.66165383315425,0.1654187624663606,2022-05-23 00:10:07
-0.16956260342498766,0.013933333333333336,137.67372109448633,96.91355396376186,0.1902397923944338,2022-05-23 00:10:08
-0.1282003946839564,0.013933333333333336,142.30485754801646,98.5045621428954,0.21457963447977413,2022-05-23 00:10:09
-0.10305867226075768,0.013933333333333336,147.681869323373,97.30591787288856,0.23835885132646442,2022-05-23 00:10:10
-0.0891365907347944,0.013933333333333336,152.9670789457392,98.77036864535633,0.26149980205777357,2022-05-23 00:10:11
-0.07892642543825341,0.013933333333333336,157.2042851369686,98.1181554130078,0.28392672397195956,2022-05-23 00:10:12
-0.06897512725830536,0.013933333333333336,159.43728700896764,97.43409392389584,0.305565900222107,2022-05-23 00:10:13
-0.058317183356086016,0.013933333333333336,158.83648798834042,96.37863031124807,0.3263458218884204,2022-05-23 00:10:14
-0.04617970069079794,0.013933333333333336,155.3319155235221,98.92813065140324,0.346197343998741,2022-05-23 00:10:15
-0.03209459700522524,0.013933333333333336,149.9930329006953,96.47950095103228,0.36505383506964856,2022-05-23 00:10:16
-0.01589860082573759,0.013933333333333336,144.1425116035277,96.60780637565898,0.3828513197582623,2022-05-23 00:10:17
0.0023248817762774906,0.013933333333333336,139.1030234011747,97.29354526548111,0.3995286142337572,2022-05-23 00:10:18
0.022625764942588195,0.013933333333333336,136.0869115064184,97.21260571732545,0.41502745389751794,2022-05-23 00:10:19
0.04497870633971955,0.013933333333333336,135.6445464488526,96.44025444229288,0.42929261310189487,2022-05-23 00:10:20
0.06926222860020681,0.013933333333333336,137.33333959089651,98.18795675808337,0.442272016539412,2022-05-23 00:10:21
0.09527345011661442,0.013933333333333336,140.49004485699916,96.56623520063155,0.4539168419971025,2022-05-23 00:10:22
0.12272808504154051,0.013933333333333336,144.4514163566907,97.931686932935,0.4641816141943333,2022-05-23 00:10:23
0.15126044339705333,0.013933333333333336,148.58513995213414,98.2629178517289,0.47302428993874024,2022-05-23 00:10:24
0.18042464190701324,0.013933333333333336,152.44449117304492,96.63219717624996,0.48041177444318894,2022-05-23 00:10:25
0.20969760147392452,0.013933333333333336,155.86112995847105,97.80286274432292,0.4863334565888903,2022-05-23 00:10:26
0.23847575239268073,0.013933333333333336,158.72857953141687,98.2467851257375,0.4907864591580568,2022-05-23 00:10:27
0.26607412071819986,0.013933333333333336,160.94036320763874,97.914656131861,0.49377157919761894,2022-05-23 00:10:28
0.2918526354548211,0.013933333333333336,162.39518389350837,97.79138190883995,0.49529332385758396,2022-05-23 00:10:29
0.3152341823939817,0.013933333333333336,163.02282164488236,96.88644685696649,0.4953599360602584,2022-05-23 00:10:30
0.33546531001408697,0.013933333333333336,162.7996721961125,98.19481941372453,0.49398340992997963,2022-05-23 00:10:31
0.3519215353686252,0.013933333333333336,161.71249033804008,98.83592531999984,0.491179495941063,2022-05-23 00:10:32
0.3641153847580722,0.013933333333333336,159.74803087216276,97.27668417078463,0.4869676957698545,2022-05-23 00:10:33
0.37169639372988467,0.013933333333333336,156.92237318430864,98.34654545049422,0.4813712468649996,2022-05-23 00:10:34
0.37445110707850143,0.013933333333333336,153.42754417383162,96.16842311898574,0.4744170967782204,2022-05-23 00:10:35
0.3723030788453438,0.013933333333333336,149.71949200572496,98.5058148074699,0.466135867325957,2022-05-23 00:10:36
0.3653128723188164,0.013933333333333336,146.31281397551567,96.57675005046644,0.45656180868010604,2022-05-23 00:10:37
0.35367806003430535,0.013933333333333336,143.72210731844862,97.18529060666992,0.4457327435136878,2022-05-23 00:10:38
0.33773322074776857,1.5139333333333334,142.41026302052,96.90024313777607,0.43369000135453695,2022-05-23 00:10:39
0.31778208467230346,0.013933333333333336,142.53025065725967,96.24031093141815,0.42047834332694795,2022-05-23 00:10:40
0.29437610901909195,0.013933333333333336,143.7720565950493,98.71389300880872,0.40614587748755243,2022-05-23 00:10:41
0.26828386283217465,0.013933333333333336,145.7283112735123,97.11046253266122,0.3907439649874904,2022-05-23 00:10:42
0.24022644178304353,0.013933333333333336,147.99915727180073,97.59209231542842,0.37432711731806545,2022-05-23 00:10:43
0.2108774681706398,0.013933333333333336,150.19074166716044,97.48234879768897,0.3569528849215532,2022-05-23 00:10:44
0.18086308539489454,0.013933333333333336,151.91092883643006,96.39648342582882,0.33867914439966673,2022-05-23 00:10:45
0.15076193531034182,0.013933333333333336,152.7637026629515,96.6193621766683,0.3195533448990488,2022-05-23 00:10:46
0.12110517744441897,0.013933333333333336,152.3460410488632,96.22856642709696,0.2996213901452657,2022-05-23 00:10:47
0.09237649794829808,0.013933333333333336,150.24724366361608,97.52376509983586,0.27893169561003084,2022-05-23 00:10:48
0.06501218485880926,0.013933333333333336,148.32234880848824,96.78464865549896,0.25753496865742453,2022-05-23 00:10:49
0.03940233735732549,0.013933333333333336,149.10235558517329,97.07118482664838,0.23548289472938613,2022-05-23 00:10:50
0.01590581587758569,0.013933333333333336,149.17967831642338,96.32419598609171,0.21282817425992678,2022-05-23 00:10:51
-0.0052901027443208945,0.013933333333333336,148.73046735276563,98.36265551895752,0.18962535398908564,2022-05-23 00:10:52
-0.024236178202896017,0.013933333333333336,147.92886395398415,96.3197516303664,0.16593068600410543,2022-05-23 00:10:53
-0.04100548546382959,0.013933333333333336,146.9479919257737,98.95712647113956,0.1418019502374089,2022-05-23 00:10:54
-0.05568442538135081,0.013933333333333336,145.96075974092597,96.53148349331525,0.11729827277685848,2022-05-23 00:10:55
-0.06837272469823125,0.013933333333333336,145.14048628754222,97.71721533730394,0.09247994048629612,2022-05-23 00:10:56
-0.07918343604578075,0.013933333333333336,144.66137126747662,96.13453600376727,0.06740821244447852,2022-05-23 00:10:57
-0.08824293794385385,0.013933333333333336,144.6988335648395,98.3613488689675,0.04214512871923735,2022-05-23 00:10:58
-0.09569093480084523,0.013933333333333336,145.40997260497087,96.5688178434549,0.01675331700100362,2022-05-23 00:10:59
-0.10168045691369154,0.013933333333333336,146.83487037226502,97.58371193522439,-0.008704202374300854,2022-05-23 00:11:00
-0.10637786046786886,0.013933333333333336,148.83735791496827,98.22023262947721,-0.0341642124785865,2022-05-23 00:11:01
-0.10996282753739697,0.013933333333333336,151.2434027800317,96.44979445475177,-0.05956349638376343,2022-05-23 00:11:02
-0.11262836608483567,0.013933333333333336,153.88061559684957,97.65326152256091,-0.08483903375390998,2022-05-23 00:11:03
-0.114580809961287,0.013933333333333336,156.57545870549188,96.64985162498634,-0.10992819689859513,2022-05-23 00:11:04
-0.11602543788377276,0.013933333333333336,159.13950889178903,98.27758814795143,-0.13476803636102969,2022-05-23 00:11:05
-0.11695259143589082,0.013933333333333336,161.3611651534135,98.16874558066864,-0.15928948615901736,2022-05-23 00:11:06
-0.11744879689704271,0.013933333333333336,163.02465234081072,96.52964710283125,-0.18342129057226514,2022-05-23 00:11:07
-0.11762235672334802,0.013933333333333336,163.91536564887676,98.58589967300122,-0.20709333816768216,2022-05-23 00:11:08
-0.11752741418593815,0.013933333333333336,163.8563459844209,96.05932529854903,-0.2302368636676099,2022-05-23 00:11:09
-0.117163953370957,0.71585,162.89115179680084,98.58071099226935,-0.2527846296395606,2022-05-23 00:11:10
-0.11647779917956011,0.013933333333333336,161.39401920107642,97.67671143348281,-0.2746711039982695,2022-05-23 00:11:11
-0.11536061732791512,0.013933333333333336,159.814813994398,97.20966141631754,-0.2958326328334479,2022-05-23 00:11:12
-0.11364991434720169,0.013933333333333336,158.60560462107622,98.276240793067,-0.31620760808964005,2022-05-23 00:11:13
-0.11112903758361184,0.013933333333333336,158.1644748515149,98.1507870050774,-0.3357366296384986,2022-05-23 00:11:14
-0.10752717519834941,0.013933333333333336,158.56414134440737,98.96197852442528,-0.35436266129932986,2022-05-23 00:11:15
-0.10251935616763024,0.013933333333333336,159.38966024856975,96.83425514583895,-0.3720311803801674,2022-05-23 00:11:16
-0.09572645028268137,0.013933333333333336,160.11661396157837,96.01138101722803,-0.3886903203295894,2022-05-23 00:11:17
-0.0867151681497442,0.013933333333333336,160.2194196170238,98.80170782494466,-0.40429100610822283,2022-05-23 00:11:18
-0.07499806119006994,0.013933333333333336,159.23352759919842,98.57369131361368,-0.4187870819089096,2022-05-23 00:11:19
-0.06009142121181253,0.013933333333333336,157.06522817565568,98.18655263255776,-0.4321354308754606,2022-05-23 00:11:20
-0.0417922477603841,0.013933333333333336,154.1772608898493,97.55006634876462,-0.44429608649185603,2022-05-23 00:11:21
-0.020186384941369075,0.013933333333333336,151.15455712657263,98.12086873574628,-0.4552323353365824,2022-05-23 00:11:22
0.00438148035132415,0.013933333333333336,148.5794343388471,98.34158867063023,-0.46491081092046377,2022-05-23 00:11:23
0.03130780344183645,0.013933333333333336,146.97272249563127,97.12462783061058,-0.4733015783507834,2022-05-23 00:11:24
0.05973033883774143,0.013933333333333336,146.50319145434725,98.31096757598988,-0.4803786583007625,2022-05-23 00:11:25
0.08852982288138116,0.013933333333333336,146.81512309486385,98.25187295752552,-0.486124902789035,2022-05-23 00:11:26
0.11632932809349208,0.013933333333333336,147.43906117653447,97.83963363463278,-0.4905302053199392,2022-05-23 00:11:27
0.14149308943412256,0.013933333333333336,147.9108888203236,97.20559777190351,-0.4935881914683117,2022-05-23 00:11:28
0.1621264840641073,0.013933333333333336,147.80663463053347,98.09192405779302,-0.49529619687903004,2022-05-23 00:11:29
0.17635856463992575,0.013933333333333336,146.91054064033182,96.00933857347557,-0.4956547345222732,2022-05-23 00:11:30
0.1834068838113292,0.013933333333333336,145.31485159022995,98.3246899401738,-0.4946660901549892,2022-05-23 00:11:31
0.18280774887546725,0.013933333333333336,143.18243453775926,98.68924980737054,-0.49233586797136164,2022-05-23 00:11:32
0.17457539609590642,0.013933333333333336,140.67787166709616,96.71794712231251,-0.48867342336760367,2022-05-23 00:11:33
0.15923087977664546,0.013933333333333336,137.96617081559975,96.36230155292769,-0.48369184751222827,2022-05-23 00:11:34
0.1378020722621218,0.013933333333333336,135.21178921000853,96.66085196338118,-0.4774079416768275,2022-05-23 00:11:35
0.11182366393720272,0.013933333333333336,132.57795915402477,96.90629019387029,-0.4698421813977071,2022-05-23 00:11:36
0.08309156021202364,0.013933333333333336,130.22627084548915,98.6490855256915,-0.4610186705666324,2022-05-23 00:11:37
0.0532719570079738,0.013933333333333336,128.3164576260574,97.62949929071428,-0.45096508557648995,2022-05-23 00:11:38
0.024027377834257152,0.013933333333333336,126.22464624050806,96.8601349488193,-0.4397126096749868,2022-05-23 00:11:39
-0.0033665278389622896,0.013933333333333336,123.27749333380515,96.41506406937884,-0.4272958577062808,2022-05-23 00:11:40
-0.0280284475671881,0.013933333333333336,121.01690351964348,96.87043338931362,-0.41375279144687294,2022-05-23 00:11:41
-0.04947140593159612,0.013933333333333336,119.3540757443833,97.84161326922376,-0.3991246257677691,2022-05-23 00:11:42
-0.06757157401390311,0.013933333333333336,118.19876123748942,96.97241558969235,-0.3834557258801445,2022-05-23 00:11:43
-0.08088430399012222,0.013933333333333336,117.45944349636625,97.37208054507299,-0.36679349594614324,2022-05-23 00:11:44
-0.09411671723756479,0.013933333333333336,117.04351579826653,97.33235132104984,-0.3491879449696655,2022-05-23 00:11:45
-0.11304586026633943,0.013933333333333336,116.85744994204168,98.48440608219454,-0.3306857569824702,2022-05-23 00:11:46
-0.1407554808958263,0.013933333333333336,116.80695242113492,97.2790444627087,-0.31133071739569823,2022-05-23 00:11:47
-0.1776346916097371,0.013933333333333336,116.79710600766907,97.03709646352651,-0.29116892339029293,2022-05-23 00:11:48
-0.2213779191872563,0.013933333333333336,116.73885634976341,98.02491481442732,-0.27024883609483435,2022-05-23 00:11:49
-0.268320105046209,1.7639333333333336,116.5811218032643,96.66444616720058,-0.248621124565022,2022-05-23 00:11:50
-0.3029255671458667,0.013933333333333336,116.33998318113672,97.40173747177965,-0.2263385037113826,2022-05-23 00:11:51
-0.2796075166046453,0.013933333333333336,116.07095079984856,96.94429706197205,-0.20345556661943154,2022-05-23 00:11:52
-0.16960686084398066,0.013933333333333336,115.83542242003298,97.8805668064885,-0.18002861172188825,2022-05-23 00:11:53
0.03342789004198126,0.013933333333333336,115.67090718881762,98.63208142408443,-0.15611546529665196,2022-05-23 00:11:54
0.31344062328630395,0.013933333333333336,115.59073410528863,97.34306700043689,-0.13177529977706162,2022-05-23 00:11:55
0.6319676234493692,0.013933333333333336,115.58425231738642,98.35337225637576,-0.10706844837243579,2022-05-23 00:11:56
0.9210635377744291,0.013933333333333336,115.63455262220558,97.37089710168465,-0.08205621650701111,2022-05-23 00:11:57
1.071889979895878,0.013933333333333336,115.72043647893094,97.9686879951514,-0.05680069059408882,2022-05-23 00:11:58
1.0235841773457466,0.013933333333333336,115.81801274081334,96.3955229250825,-0.03136454466957633,2022-05-23 00:11:59
0.7919864771217762,0.013933333333333336,115.91722029245543,97.29894452090295,-0.005810845414882617,2022-05-23 00:12:00
0.45638859734009013,0.013933333333333336,116.03253654709383,98.7279359659648,0.01979714389643674,2022-05-23 00:12:01
0.1163102660068597,0.013933333333333336,116.18076634683669,97.8164370030928,0.045396159990811875,2022-05-23 00:12:02
-0.15817134093500174,0.013933333333333336,116.37556978408293,98.30032376171131,0.07092313618684458,2022-05-23 00:12:03
-0.3293354072189695,0.013933333333333336,116.632008357292,97.51410182428768,0.09631539844862733,2022-05-23 00:12:04
-0.39119148910539747,0.013933333333333336,116.98461339895576,97.49416687448402,0.12151070532408446,2022-05-23 00:12:05
-0.3807140889827321,0.013933333333333336,117.49847921310878,98.52869952057856,0.14644189080390635,2022-05-23 00:12:06
-0.33079856614165626,0.013933333333333336,118.2460850482633,96.20342080302287,0.1710355302418959,2022-05-23 00:12:07
-0.2668359753241042,0.013933333333333336,119.3010222496168,97.71981681464905,0.19521889429020198,2022-05-23 00:12:08
-0.20671331009798602,0.013933333333333336,120.7225860569066,98.82828772629885,0.21892059975641262,2022-05-23 00:12:09
-0.16081349996822594,0.013933333333333336,122.47696405837331,97.55358014451697,0.2420707376252176,2022-05-23 00:12:10
-0.1320153508529737,0.013933333333333336,124.38996335935872,96.58339742858365,0.26459994479770843,2022-05-23 00:12:11
-0.11456904762000415,0.013933333333333336,126.25785946181384,98.54381817733042,0.286439617082197,2022-05-23 00:12:12
-0.100993002999315,0.013933333333333336,127.87907098633569,96.75491742706755,0.30752315050948026,2022-05-23 00:12:13
-0.089600286645515,0.013933333333333336,129.07544633701536,98.1021781094476,0.3277861490374746,2022-05-23 00:12:14
-0.07906124089448789,0.013933333333333336,129.79874543745623,97.6207828211907,0.3471665805717335,2022-05-23 00:12:15
-0.06826146393965034,0.013933333333333336,130.1944689568997,98.84650886484066,0.3656049265065486,2022-05-23 00:12:16
-0.0563018098319463,0.013933333333333336,130.4525664241387,97.87301010720803,0.3830443243767536,2022-05-23 00:12:17
-0.04249838847985096,0.013933333333333336,130.76467685820546,98.51393388614319,0.39943070322922863,2022-05-23 00:12:18
-0.02638256564936792,0.013933333333333336,131.30339010781591,96.02379862858356,0.4147129113430775,2022-05-23 00:12:19
-0.007700962964035097,0.013933333333333336,132.11914752458767,98.96802016849992,0.4288428359483601,2022-05-23 00:12:20
0.013584542095083326,0.013933333333333336,133.0783205035875,96.23314371099715,0.4417755146153143,2022-05-23 00:12:21
0.03729681618939211,0.013933333333333336,134.00718262937067,96.9663885408443,0.4534692380086805,2022-05-23 00:12:22
0.06304347012276536,0.013933333333333336,134.73294211149693,98.83845718637029,0.46388564372554103,2022-05-23 00:12:23
0.09021685884155008,0.013933333333333336,135.08360352909557,96.02681730711373,0.4729898009594345,2022-05-23 00:12:24
0.11852994683068904,0.013933333333333336,134.8878382927303,98.46819001626581,0.48075032442643495,2022-05-23 00:12:25
0.14791216567137175,0.013933333333333336,133.97486466022244,98.58363491510039,0.48714288331730476,2022-05-23 00:12:26
0.17766222826318329,0.013933333333333336,132.17433776654912,97.31949244262572,0.49215297399941876,2022-05-23 00:12:27
0.20710448945365917,0.013933333333333336,129.31624982502524,96.7672355814178,0.4957704064746057,2022-05-23 00:12:28
0.23559392478974056,0.013933333333333336,124.42616961765734,98.4080685588999,0.4979887008477707,2022-05-23 00:12:29
0.2625161305177906,0.013933333333333336,117.57095050191211,97.43358601329666,0.4988051129961186,2022-05-23 00:12:30
0.2872873235835833,0.013933333333333336,112.28885838517243,96.40301582596709,0.49822064999888493,2022-05-23 00:12:31
0.3093543416323081,0.013933333333333336,108.45899093144075,98.78354697847503,0.4962400752852831,2022-05-23 00:12:32
0.3281946430085626,0.013933333333333336,105.9604280490035,98.68790990101995,0.4928719034865571,2022-05-23 00:12:33
0.34331630675636404,0.013933333333333336,104.67218640568379,97.47463545005081,0.4881283850062507,2022-05-23 00:12:34
0.3542580326191409,0.013933333333333336,104.47318104038054,98.57010748955338,0.48202548035098414,2022-05-23 00:12:35
0.36058914103973616,0.013933333333333336,105.24219343538121,97.2557340772923,0.4745828242920956,2022-05-23 00:12:36
0.36163094125425443,0.013933333333333336,106.85784542417827,98.0503947004989,0.4658236799563798,2022-05-23 00:12:37
0.3571968069859899,0.013933333333333336,109.1985783297429,97.19397191822377,0.4557748829717551,2022-05-23 00:12:38
0.34786031019667724,0.013933333333333336,112.12807931242293,97.51722605235243,0.4444667758209545,2022-05-23 00:12:39
0.3341878227000037,0.013933333333333336,115.42248205259567,96.56865510850179,0.4319331325831704,2022-05-23 00:12:40
0.31673444857359084,0.013933333333333336,118.7266859190398,98.89496677233274,0.4182110742699326,2022-05-23 00:12:41
0.29604402415898795,0.013933333333333336,121.65625269759101,96.88264706473277,0.40334097498727733,2022-05-23 00:12:42
0.2726491180616753,0.013933333333333336,123.82651879291356,96.3103786683492,0.38736635918141227,2022-05-23 00:12:43
0.24707103115106197,0.013933333333333336,124.89012112037943,96.43294620068714,0.370333790249505,2022-05-23 00:12:44
0.21981980617879127,0.013933333333333336,124.72463005556358,96.04227688257733,0.35229274722697923,2022-05-23 00:12:45
0.1913982022239267,0.013933333333333336,123.54513115746542,98.14783709838719,0.3332940119762044,2022-05-23 00:12:46
0.1623078256683193,0.013933333333333336,121.64154446193629,97.69349496072262,0.31338724291486203,2022-05-23 00:12:47
0.13304059650157898,0.013933333333333336,119.30357400448443,98.38373505355426,0.29262402106445745,2022-05-23 00:12:48
0.10407716697724434,0.013933333333333336,116.80573102407229,97.52123976985241,0.27105829139413823,2022-05-23 00:12:49
0.07588692161279187,0.013933333333333336,114.332447220778,98.37546311851246,0.24874620680018036,2022-05-23 00:12:50
0.04892810765798806,0.013933333333333336,111.9330875334197,98.08729264281551,0.2257462879952848,2022-05-23 00:12:51
0.023648248094086135,0.013933333333333336,109.62658006832457,98.33354543057753,0.20212027500214133,2022-05-23 00:12:52
0.00048373965319715995,0.013933333333333336,107.4309361309894,97.21944860693125,0.17793196234316785,2022-05-23 00:12:53
-0.020195711141562656,0.013933333333333336,105.36009452812763,97.94331189956245,0.15324667238678982,2022-05-23 00:12:54
-0.03841642011634895,0.013933333333333336,103.41114537464131,96.53938289307892,0.1281310736568723,2022-05-23 00:12:55
-0.05436576368629388,0.013933333333333336,101.55671385790907,96.96545989016371,0.10265299545326008,2022-05-23 00:12:56
-0.0682239174085713,0.013933333333333336,99.76237417304768,96.51781386035938,0.0768812392907125,2022-05-23 00:12:57
-0.08016326857130546,0.013933333333333336,97.99423570235687,97.22591167503978,0.050885387673063984,2022-05-23 00:12:58
-0.09034841619357822,0.013933333333333336,96.22608027429379,96.72425624389679,0.024735610726748243,2022-05-23 00:12:59
-0.09893617102542404,0.013933333333333336,94.4615289423081,97.22076598238807,-0.0014975287763102792,2022-05-23 00:13:00
-0.10607555554783177,0.013933333333333336,92.74626329926265,98.92566702731193,-0.027743271472019132,2022-05-23 00:13:01
-0.1119078039727424,0.013933333333333336,91.13788073956977,96.9609579774661,-0.0539308579962858,2022-05-23 00:13:02
-0.1165663622430528,0.013933333333333336,89.6961913945089,98.94747283492468,-0.07998972557718594,2022-05-23 00:13:03
-0.12017688803261273,0.013933333333333336,88.46990421234042,97.90891837756796,-0.1058497040882857,2022-05-23 00:13:04
-0.12285725078226138,0.23615833333333336,87.43655383990654,97.12527305518174,-0.13144121101881334,2022-05-23 00:13:05
-0.12471954810617214,0.013933333333333336,86.47660739688118,98.57245349725079,-0.15669505664390693,2022-05-23 00:13:06
-0.12587553149112965,0.013933333333333336,85.46442006076138,97.85876021810572,-0.18154159070107695,2022-05-23 00:13:07
-0.1264308806658066,0.013933333333333336,84.26520281967218,96.75609924039252,-0.20591199324310222,2022-05-23 00:13:08
-0.12648348708982923,0.013933333333333336,82.74384153545242,98.37856703393066,-0.22973879047821377,2022-05-23 00:13:09
-0.12612345395377772,0.013933333333333336,80.86520287557155,97.29881552620249,-0.25295603645980347,2022-05-23 00:13:10
-0.1254330961791863,0.013933333333333336,78.75481721712815,97.07253350199133,-0.2754994905884768,2022-05-23 00:13:11
-0.12448694041854305,0.013933333333333336,76.5716661653525,96.99083080957524,-0.297306790439834,2022-05-23 00:13:12
-0.12332272138527581,0.013933333333333336,74.47291972762464,98.09210662683942,-0.31831761944429593,2022-05-23 00:13:13
-0.12178056403411365,0.013933333333333336,72.61516924762745,96.80595037171868,-0.3384738689593976,2022-05-23 00:13:14
-0.11960939684620833,0.013933333333333336,71.15518151347122,98.42483404111614,-0.35771979429031703,2022-05-23 00:13:15
-0.1165396348682781,0.013933333333333336,70.25034243888614,96.88586638319954,-0.3760021642309754,2022-05-23 00:13:16
-0.11228336415154927,0.013933333333333336,70.05890031234912,97.63236415075608,-0.39327040371582794,2022-05-23 00:13:17
-0.1065343417517558,0.013933333333333336,70.74008057045658,97.4637644754156,-0.4094767291913812,2022-05-23 00:13:18
-0.09896799572914099,0.013933333333333336,70.72020694575059,98.56606923778611,-0.42457627633635686,2022-05-23 00:13:19
-0.08924142514845493,0.013933333333333336,68.39643388621224,98.66515930318616,-0.43852721978044545,2022-05-23 00:13:20
-0.07699340007895616,0.013933333333333336,67.21654308939507,96.5531533271033,-0.45129088449350685,2022-05-23 00:13:21
-0.06184436159441119,0.013933333333333336,66.97791213975499,97.75604537681475,-0.4628318485399072,2022-05-23 00:13:22
-0.043396421773094676,0.013933333333333336,67.47872239485181,98.69461513805142,-0.47311803691634896,2022-05-23 00:13:23
-0.02105066868361648,0.013933333333333336,68.51787375345475,97.33835165710329,-0.48212080621600006,2022-05-23 00:13:24
0.004746230498271654,0.013933333333333336,69.89488600402711,98.76560491645145,-0.48981501988683107,2022-05-23 00:13:25
0.03280217647202772,0.013933333333333336,71.40977133027708,96.83697267137092,-0.496179193578606,2022-05-23 00:13:26
0.06191306935389612,0.013933333333333336,72.86284439468912,97.82649352258139,-0.5011959032637494,2022-05-23 00:13:27
0.09086032613144343,0.013933333333333336,74.05441404494594,98.04736112930044,-0.5048515448419286,2022-05-23 00:13:28
0.11840960007565139,0.013933333333333336,74.8091218940604,96.68461720005145,-0.5071362244276824,2022-05-23 00:13:29
0.14331077975731984,0.013933333333333336,75.09944569219793,96.04130253767315,-0.5080437839078488,2022-05-23 00:13:30
0.16429797818743733,0.013933333333333336,75.11982820990254,97.25017188711209,-0.507571843660914,2022-05-23 00:13:31
0.1800892390589404,0.013933333333333336,75.11341393235153,98.8154456755702,-0.5057225459021572,2022-05-23 00:13:32
0.18938650274874147,0.013933333333333336,75.3236926426319,97.02908432949123,-0.5025026349705919,2022-05-23 00:13:33
0.19087112187371502,0.013933333333333336,75.965918210463,98.3392328864478,-0.4979226354141147,2022-05-23 00:13:34
0.18358593574554127,0.013933333333333336,77.07782824899182,96.52420893848222,-0.49199678188369883,2022-05-23 00:13:35
0.16883730808576256,0.013933333333333336,78.42964309897859,97.02585850890736,-0.48474298329503684,2022-05-23 00:13:36
0.1484182273651155,0.013933333333333336,79.73383063095966,96.43379316251429,-0.4761827769192743,2022-05-23 00:13:37
0.12397567363311061,0.013933333333333336,80.70447251325322,98.15031244243913,-0.4663412725286838,2022-05-23 00:13:38
0.09701061851803164,0.013933333333333336,81.09332164107113,98.09792287109045,-0.45524708675035125,2022-05-23 00:13:39
0.06887802522693656,0.013933333333333336,80.87301920855302,98.06549195384676,-0.44293226780782213,2022-05-23 00:13:40
0.040786848545652094,0.013933333333333336,80.34693692628727,96.7601881034589,-0.42943221085697747,2022-05-23 00:13:41
0.01380003483879353,0.013933333333333336,79.891542543166,98.07708036487023,-0.4147855641482102,2022-05-23 00:13:42
-0.011165477950265013,0.013933333333333336,79.88269710094822,96.68189262274785,-0.39903412627207935,2022-05-23 00:13:43
-0.0333387602993709,0.013933333333333336,80.64782060914892,97.27394734779402,-0.382222734770108,2022-05-23 00:13:44
-0.052094891107597255,0.013933333333333336,82.22712960018342,97.11576636500307,-0.3643991464160408,2022-05-23 00:13:45
-0.06594976197281326,0.013933333333333336,84.23041608294278,97.06592373486036,-0.34561345556759876,2022-05-23 00:13:46
-0.07839506047936479,0.013933333333333336,86.17133959506033,96.17296442172378,-0.3259147367543604,2022-05-23 00:13:47
-0.09493602644046796,0.013933333333333336,87.56299097034784,97.89493988059782,-0.30535279577880103,2022-05-23 00:13:48
-0.11895701898430407,2.0417083333333332,87.99092514718424,98.1219498080451,-0.28397979066015033,2022-05-23 00:13:49
-0.15172126005595357,0.013933333333333336,87.47608807099796,97.84076608350851,-0.26185008734477455,2022-05-23 00:13:50
-0.19237083441742195,0.013933333333333336,86.6886937504537,97.94493826848938,-0.23902009763385546,2022-05-23 00:13:51
-0.23831805940745288,0.013933333333333336,86.43768757593591,96.50982214265177,-0.21554811150356684,2022-05-23 00:13:52
-0.28291744434974014,0.013933333333333336,87.53117448848504,96.44834039681659,-0.1914941242772859,2022-05-23 00:13:53
-0.28426552210617223,0.013933333333333336,90.66570851778762,97.54252513057764,-0.1669196591235735,2022-05-23 00:13:54
-0.20834009574350174,0.013933333333333336,95.85692227800577,98.62599817906361,-0.14188758536641988,2022-05-23 00:13:55
-0.041519964801052675,0.013933333333333336,102.09430696295584,96.55186032464167,-0.11646193310580502,2022-05-23 00:13:56
0.20941507470933146,0.013933333333333336,108.13370103604916,97.38851735612478,-0.09070770465661664,2022-05-23 00:13:57
0.5172842303030892,0.013933333333333336,112.72251102083547,97.28679700208971,-0.06469068332282804,2022-05-23 00:13:58
0.8329922268616339,0.013933333333333336,114.72096528097273,97.49186755775855,-0.03847724003100131,2022-05-23 00:13:59
1.059628872003774,0.013933333333333336,113.71101822455336,96.48453231145804,-0.012134138353192863,2022-05-23 00:14:00
1.106041051910665,0.013933333333333336,110.36255730298431,97.02732192340443,0.014271661546369434,2022-05-23 00:14:01
0.9521605094482114,0.013933333333333336,105.5836211270479,96.78564121231057,0.040673199503468295,2022-05-23 00:14:02
0.6512703877658852,0.013933333333333336,100.27864838186935,98.53358082968843,0.06700371194604388,2022-05-23 00:14:03
0.30322976987183015,0.013933333333333336,95.34981293920042,98.40099673732921,0.09319682794753062,2022-05-23 00:14:04
-0.006855689920436572,0.013933333333333336,91.69817378257451,97.27991747480444,0.11918676420396208,2022-05-23 00:14:05
-0.2273012353728016,0.013933333333333336,90.22463044949886,97.82104638236711,0.14490787559680302,2022-05-23 00:14:06
-0.3423522396981843,0.013933333333333336,91.83069195137958,96.43639683079866,0.1702873757233912,2022-05-23 00:14:07
-0.36310048243631077,0.013933333333333336,97.41907553484538,97.52883988265268,0.19524808311303452,2022-05-23 00:14:08
-0.32067969005614155,0.013933333333333336,102.45808303473147,96.89084125736072,0.2197140542841201,2022-05-23 00:14:09
-0.25136349882080644,0.013933333333333336,101.47602215440779,98.5789528607076,0.2436108736002051,2022-05-23 00:14:10
-0.1811637742526341,0.013933333333333336,103.81716738048685,98.01479514271917,0.2668658307720537,2022-05-23 00:14:11
-0.12580862361297857,0.013933333333333336,108.7349603875924,97.90042203786726,0.2894081310536,2022-05-23 00:14:12
-0.09030812098053544,0.013933333333333336,115.4851835082876,96.37425390020753,0.3111692087119346,2022-05-23 00:14:13
-0.06898250300458678,0.013933333333333336,123.32594010317416,97.41176363849665,0.33208276196801284,2022-05-23 00:14:14
-0.05580471708372228,0.013933333333333336,131.51758726596807,98.95971833876064,0.352084853004629,2022-05-23 00:14:15
-0.04621876531580695,0.013933333333333336,139.3226321142006,98.84489752221799,0.37111405749332715,2022-05-23 00:14:16
-0.03693844539461731,0.013933333333333336,146.005601328756,97.93525692078133,0.38911160724619015,2022-05-23 00:14:17
-0.025947350609836144,0.013933333333333336,150.83289214586006,96.45517461309592,0.4060215255873496,2022-05-23 00:14:18
-0.012498869847053055,0.013933333333333336,153.1623639725612,97.91738054615972,0.4217907550731505,2022-05-23 00:14:19
0.0028840161498446624,0.013933333333333336,152.89193319176007,97.69698633763178,0.43636927721091234,2022-05-23 00:14:20
0.019746586218803985,0.013933333333333336,150.72866201698207,97.40599751298376,0.4497102238481182,2022-05-23 00:14:21
0.03862991634762132,0.013933333333333336,147.5603267343564,97.28411240840481,0.46176997992676067,2022-05-23 00:14:22
0.059565133308121146,0.013933333333333336,144.27575261197944,97.79780926697408,0.47250827732116535,2022-05-23 00:14:23
0.08249812311249875,0.013933333333333336,141.68999332035023,98.5499096655479,0.48188827950212226,2022-05-23 00:14:24
0.10728953101330693,0.013933333333333336,140.17084951265434,98.25336312111581,0.48987665679523396,2022-05-23 00:14:25
0.13371491997361273,0.013933333333333336,139.41473229783966,97.7380816208917,0.4964440015451106,2022-05-23 00:14:26
0.16146798514347763,0.013933333333333336,138.96921180877604,98.77411254460809,0.5015719737402424,2022-05-23 00:14:27
0.1901604093987346,0.013933333333333336,138.38223949758333,96.19421995032465,0.5052530283021233,2022-05-23 00:14:28
0.21932769590743986,0.013933333333333336,137.25385206892122,98.97403952619543,0.507483616010902,2022-05-23 00:14:29
0.24858634700685775,0.013933333333333336,135.49510840402678,96.15898362800397,0.5082639234190273,2022-05-23 00:14:30
0.2772266055182826,0.013933333333333336,133.48342579665785,96.59848663841568,0.5075978882809784,2022-05-23 00:14:31
0.3044712583309384,0.013933333333333336,131.69987059137043,97.26825798493368,0.5054932047012127,2022-05-23 00:14:32
0.32961915260241437,0.013933333333333336,130.6254859368184,96.32252662855551,0.5019613179862187,2022-05-23 00:14:33
0.3520451957586698,0.013933333333333336,130.67711841202927,97.87101123299311,0.497017409214783,2022-05-23 00:14:34
0.371200355494035,0.013933333333333336,131.88676890665053,96.1439776921466,0.49068036956877004,2022-05-23 00:14:35
0.38661165977121004,0.013933333333333336,133.709192758094,96.85387164302082,0.4829727644947619,2022-05-23 00:14:36
0.39788219682126563,0.013933333333333336,135.47071604643253,96.18311004335901,0.4739207877947971,2022-05-23 00:14:37
0.404691115143643,0.013933333333333336,136.4974531628343,98.11055799331524,0.46355420577203954,2022-05-23 00:14:38
0.4067936235061533,0.013933333333333336,136.1882922527373,98.00536850276845,0.4519062915844614,2022-05-23 00:14:39
0.40396368415703027,0.013933333333333336,134.3799030190083,97.13574177975181,0.4390137499865033,2022-05-23 00:14:40
0.39586374155972864,0.013933333333333336,131.56573990863888,96.56458278008947,0.4249166326649376,2022-05-23 00:14:41
0.383010255845715,0.013933333333333336,128.38500494535228,98.24101448708984,0.4096582444010443,2022-05-23 00:14:42
0.3660570449624812,0.013933333333333336,125.47663571728987,97.0211378722964,0.3932850403162727,2022-05-23 00:14:43
0.3456388806582138,0.013933333333333336,123.41932886228858,98.38590350221693,0.37584651448304346,2022-05-23 00:14:44
0.32237148848179376,0.013933333333333336,122.43166182737329,97.46370281753886,0.35739508020598515,2022-05-23 00:14:45
0.29685145827042586,0.013933333333333336,122.19216855235203,97.57700833305294,0.3379858808578293,2022-05-23 00:14:46
0.26965262250138666,0.013933333333333336,122.259176773109,96.0854725484747,0.3176741685008435,2022-05-23 00:14:47
0.24132480823281485,0.013933333333333336,122.19076659303805,97.9326960596371,0.29651430453007427,2022-05-23 00:14:48
0.21239845060452422,0.013933333333333336,121.57746465453869,97.0519695072965,0.27456277697639236,2022-05-23 00:14:49
0.18338493855702764,0.013933333333333336,120.20568543835438,96.6876150818762,0.2518782817977904,2022-05-23 00:14:50
0.15477661483153252,0.013933333333333336,118.15579998608993,97.3016501286351,0.2285215608070915,2022-05-23 00:14:51
0.12704679380842385,0.013933333333333336,115.573339200448,97.14740237181275,0.20455525266685579,2022-05-23 00:14:52
0.10065041549511294,0.013933333333333336,112.60363033039569,97.40936712025908,0.18004440470867267,2022-05-23 00:14:53
0.07602423410654936,0.013933333333333336,109.39180676149823,98.93845006253942,0.15505649285236506,2022-05-23 00:14:54
0.05358523516404069,0.013933333333333336,106.08281783531714,97.0931342111047,0.12966039809136148,2022-05-23 00:14:55
0.033571277706366295,0.013933333333333336,102.82143860713514,98.32323040000811,0.10392616219508068,2022-05-23 00:14:56
0.015897298148769248,0.013933333333333336,99.75227946697254,97.65830278964968,0.07792479914784897,2022-05-23 00:14:57
0.0004424782041937811,0.013933333333333336,97.0197955627134,98.66739326732245,0.051728103923060785,2022-05-23 00:14:58
-0.012919218252130764,0.013933333333333336,95.56737449623236,97.06485855344872,0.02540845911672025,2022-05-23 00:14:59
-0.024319045182690232,0.013933333333333336,95.94876797955888,96.73655604055952,-0.0009613600296812547,2022-05-23 00:15:00
-0.03389347438768567,0.013933333333333336,95.92354942981882,98.73305771897091,-0.027308381682484215,2022-05-23 00:15:01
-0.041784195505033164,0.013933333333333336,95.61369553193923,96.13060279127329,-0.05355963400802564,2022-05-23 00:15:02
-0.04813811601036413,0.013933333333333336,95.14107050226693,98.852260284183,-0.07964234176482131,2022-05-23 00:15:03
-0.05310736121702564,0.013933333333333336,94.62743361916093,97.66922074701277,-0.10548412235687035,2022-05-23 00:15:04
-0.05684927427607757,0.013933333333333336,94.19444639034181,97.12908965006126,-0.1310131808107645,2022-05-23 00:15:05
-0.05952640233090068,0.013933333333333336,93.9636793570729,98.98515696701733,-0.15615852352137358,2022-05-23 00:15:06
-0.06130501483937346,0.013933333333333336,94.05661853853655,96.1750879384429,-0.18085233037559878,2022-05-23 00:15:07
-0.062353786562426634,0.013933333333333336,94.59467152223635,97.55011907930283,-0.20503208183711932,2022-05-23 00:15:08
-0.06284629943562225,0.013933333333333336,95.6738333310449,96.09329122636665,-0.22863706179347076,2022-05-23 00:15:09
-0.0629612468068982,0.013933333333333336,97.23799244230577,97.7135272175587,-0.2516080819773786,2022-05-23 00:15:10
-0.06277331615942233,0.013933333333333336,99.00291620641514,96.54140552698534,-0.27388765946876226,2022-05-23 00:15:11
-0.06229008316675299,0.013933333333333336,100.63363461081462,97.8928776010186,-0.295420189522536,2022-05-23 00:15:12
-0.06154074906966572,0.013933333333333336,101.7951240012533,98.94277102725175,-0.3161521132484329,2022-05-23 00:15:13
-0.060507659705212574,0.013933333333333336,102.18227450657545,98.62470765363715,-0.33603207968331383,2022-05-23 00:15:14
-0.05912630550672249,0.013933333333333336,101.66971323138637,97.35550874826261,-0.35501110181167406,2022-05-23 00:15:15
-0.05728532150380103,0.013933333333333336,100.40168668806375,98.12538261015516,-0.37304270610674445,2022-05-23 00:15:16
-0.05482648732233077,0.013933333333333336,98.5822643822151,98.33240625000957,-0.39008307518230534,2022-05-23 00:15:17
-0.051544727184470965,0.013933333333333336,96.41529269639867,97.48452925254769,-0.40609118316417814,2022-05-23 00:15:18
-0.04718810990865777,0.013933333333333336,94.10176950656123,97.5856004705327,-0.421028923410402,2022-05-23 00:15:19
-0.04145784890960278,0.013933333333333336,91.8275864294355,96.45235319511657,-0.43486122822998674,2022-05-23 00:15:20
-0.03400830219829779,0.013933333333333336,89.7559291519336,97.10819977683572,-0.4475561802721058,2022-05-23 00:15:21
-0.024446972382008325,0.013933333333333336,88.04376386237755,96.42666375921836,-0.45908511528044343,2022-05-23 00:15:22
-0.012334506664277649,0.013933333333333336,86.84760791407638,98.1806812600337,-0.4694227159310237,2022-05-23 00:15:23
0.002815303155074084,0.013933333333333336,86.30239277382175,97.43103898320679,-0.47854709649632565,2022-05-23 00:15:24
0.021446342022230662,0.013933333333333336,86.40895458110556,97.34663651012029,-0.48643987810364414,2022-05-23 00:15:25
0.043501758945508485,0.013933333333333336,86.96605967043035,98.65799391349606,-0.4930862475988741,2022-05-23 00:15:26
0.06861209817741193,0.013933333333333336,87.7289582065786,97.58285631693468,-0.4984709550699425,2022-05-23 00:15:27
0.0961568808677767,0.013933333333333336,88.4541484166592,97.22727249575058,-0.5025714895789152,2022-05-23 00:15:28
0.12525903483627795,0.013933333333333336,88.91987959971127,96.80667606663793,-0.5053672302947096,2022-05-23 00:15:29
0.15478468606874443,0.013933333333333336,89.03134145124632,96.2160361055093,-0.5068412921585425,2022-05-23 00:15:30
0.18334315871718956,0.013933333333333336,88.88372994238496,97.25440840117595,-0.5069805413136625,2022-05-23 00:15:31
0.2092869750997904,0.013933333333333336,88.61406507798378,96.07726044721976,-0.5057756002532958,2022-05-23 00:15:32
0.23072004725021084,0.013933333333333336,88.35880515380828,96.87346182165729,-0.5032211113279257,2022-05-23 00:15:33
0.24606714990360679,0.013933333333333336,88.24029909151402,97.51052852954518,-0.499317005278686,2022-05-23 00:15:34
0.25441529576264416,0.013933333333333336,88.29923518734947,98.89779919505916,-0.4940674794547184,2022-05-23 00:15:35
0.2552583687737298,0.013933333333333336,88.45414608961406,96.32814874258075,-0.4874804061830379,2022-05-23 00:15:36
0.24855972105931368,0.013933333333333336,88.59606169794054,98.01912316264986,-0.4795672861461135,2022-05-23 00:15:37
0.23475217291789455,0.013933333333333336,88.61560231896021,97.4997971132976,-0.47034319252754225,2022-05-23 00:15:38
0.2147380128240129,0.013933333333333336,88.41776345619215,98.33129468782735,-0.4598267053657317,2022-05-23 00:15:39
0.18988899742825455,0.013933333333333336,87.99556867737175,96.43082099362263,-0.44803983629555216,2022-05-23 00:15:40
0.1620463515572503,0.013933333333333336,87.47428096493465,96.24960790930763,-0.43500794388420594,2022-05-23 00:15:41
0.1330079535334573,0.013933333333333336,87.00842823344217,97.19765581605736,-0.4207596397934066,2022-05-23 00:15:42
0.10423426440718994,0.013933333333333336,86.75241163702228,98.3908867559397,-0.40532668602503585,2022-05-23 00:15:43
0.0773286354162128,0.013933333333333336,86.86054311457329,96.57502721672967,-0.3887438835319437,2022-05-23 00:15:44
0.053324713504795944,0.013933333333333336,87.48707678123668,98.30333157644182,-0.37104895249919334,2022-05-23 00:15:45
0.032679235716891374,0.013933333333333336,88.78623472841169,96.87089399118561,-0.35228240462477395,2022-05-23 00:15:46
0.01527100476673678,0.013933333333333336,90.91222781924365,96.65067446283538,-0.3324903453947958,2022-05-23 00:15:47
0.00039789742476877216,0.013933333333333336,94.01927203926697,96.05014676723101,-0.3117329101640025,2022-05-23 00:15:48
-0.013216739498581213,0.013933333333333336,95.38247506215374,97.19597717976714,-0.2900754199395888,2022-05-23 00:15:49
-0.027251629341349663,0.013933333333333336,92.56675454768828,97.14324447388036,-0.2675854036558666,2022-05-23 00:15:50
-0.04878320663211627,0.013933333333333336,91.8887493845193,97.97803480858609,-0.2443324361019745,2022-05-23 00:15:51
-0.08232827977096573,0.013933333333333336,92.976370648389,96.21275520141116,-0.22038797024204365,2022-05-23 00:15:52
-0.12595429501462338,0.013933333333333336,95.45756469633875,96.45781196112682,-0.19582516438739897,2022-05-23 00:15:53
-0.17130378281346206,0.013933333333333336,98.96031097969006,96.0497276487028,-0.17071870469455186,2022-05-23 00:15:54
-0.20260298829200837,0.013933333333333336,103.11261764297754,96.34138906934223,-0.1451446234754598,2022-05-23 00:15:55
-0.18823530068574515,0.013933333333333336,107.54251517030724,97.95536782803028,-0.1191801138180505,2022-05-23 00:15:56
-0.10176732767291197,0.013933333333333336,111.87804843610161,97.20797055652476,-0.09290334102516916,2022-05-23 00:15:57
0.07106642330651772,0.013933333333333336,115.74726765522566,96.96307894250195,-0.06639325138873618,2022-05-23 00:15:58
0.33282735293274646,0.013933333333333336,118.81385468545525,97.67373598273132,-0.03972937882327487,2022-05-23 00:15:59
0.6720211194375659,0.013933333333333336,120.95529288126349,98.98038138929955,-0.012991649888788438,2022-05-23 00:16:00
0.9780742360539646,0.013933333333333336,122.3697666562987,98.50345954205409,0.013739812262541088,2022-05-23 00:16:01
1.1500960433634155,0.013933333333333336,123.326705332398,98.09886954719875,0.04038488447853876,2022-05-23 00:16:02
1.1378728572761954,0.013933333333333336,124.09550899720094,98.75477576739617,0.06686364019918707,2022-05-23 00:16:03
0.9418679690315835,0.013933333333333336,124.90562235579529,96.11918612004925,0.09309654550996993,2022-05-23 00:16:04
0.619554066965402,0.013933333333333336,125.74690363051423,96.21100032484658,0.11900465411896344,2022-05-23 00:16:05
0.2766432664303338,0.013933333333333336,126.24985129595032,97.42201886996416,0.1445098007233293,2022-05-23 00:16:06
-0.010434238335391635,0.013933333333333336,125.96510538953106,97.04750223887123,0.1695361280249736,2022-05-23 00:16:07
-0.19874365648135497,0.013933333333333336,124.44331483228163,98.81175618638535,0.1940166399685838,2022-05-23 00:16:08
-0.2781843147683925,0.013933333333333336,121.31013159456018,97.4686948834355,0.2178884402040551,2022-05-23 00:16:09
-0.2711336878191978,0.013933333333333336,116.64112618917306,97.61894733028005,0.24109016369177327,2022-05-23 00:16:10
-0.2131881815097183,0.013933333333333336,111.18674111879261,98.68578109719367,0.26356215073931855,2022-05-23 00:16:11
-0.13822633700047252,0.013933333333333336,105.84743832446452,97.33990513747108,0.28524661982926636,2022-05-23 00:16:12
-0.07167089905760138,0.013933333333333336,101.52374627762109,98.63110316781106,0.3060878448676475,2022-05-23 00:16:13
-0.025910581322572,0.013933333333333336,99.02857324077462,96.76074524811489,0.3260328138272198,2022-05-23 00:16:14
-0.00029977517580682175,0.013933333333333336,98.64874969410108,96.82142911247432,0.3450316263702679,2022-05-23 00:16:15
0.015555343837548516,0.013933333333333336,99.88195260537465,96.98508417026277,0.36303695585565937,2022-05-23 00:16:16
0.0265962573632526,0.013933333333333336,102.05054848610229,97.64269281144286,0.3800041317828016,2022-05-23 00:16:17
0.03602878717642871,0.013933333333333336,104.47697444072404,96.66038602208094,0.3958912751631574,2022-05-23 00:16:18
0.0461102503210118,0.013933333333333336,106.53508876284099,98.01428751324381,0.41065942624039964,2022-05-23 00:16:19
0.05804812102591906,0.013933333333333336,107.90694039841148,96.428379848409,0.4242726642091666,2022-05-23 00:16:20
0.07200003070506045,0.013933333333333336,108.73682802220465,96.28230082349891,0.4366982186042718,2022-05-23 00:16:21
0.08773790808486198,0.013933333333333336,109.27180956226955,98.61057523861614,0.44790657205503326,2022-05-23 00:16:22
0.10555724313394327,0.013933333333333336,109.75898636768008,96.710606110671,0.45787155412310615,2022-05-23 00:16:23
0.12551721190243884,0.013933333333333336,110.42968875185488,97.15801203306779,0.46657042596660425,2022-05-23 00:16:24
0.14759069809523237,0.013933333333333336,111.42042722240981,97.714626278176,0.4739839555984591,2022-05-23 00:16:25
0.1716643706273987,0.013933333333333336,112.72546140146898,97.5774059098544,0.4800964835327226,2022-05-23 00:16:26
0.19753819942613518,0.013933333333333336,114.30745591087495,96.22807163832633,0.4848953864533561,2022-05-23 00:16:27
0.22492174881964344,0.013933333333333336,116.12909346246772,98.62237780679409,0.4883665898515811,2022-05-23 00:16:28
0.2534459043193968,0.013933333333333336,118.1456356199467,98.85340685525608,0.4904971023936048,2022-05-23 00:16:29
0.28281383367758506,0.013933333333333336,120.26774203731816,98.43752191252402,0.49127764716739086,2022-05-23 00:16:30
0.3123492562540875,0.013933333333333336,122.33916113173665,96.85140550484063,0.49070269846293413,2022-05-23 00:16:31
0.34127959203284197,0.013933333333333336,124.18877613415069,97.58354038835388,0.48877048692020675,2022-05-23 00:16:32
0.36888472270162775,0.013933333333333336,125.64547403579417,97.01825017205283,0.4854829943812119,2022-05-23 00:16:33
0.39449699165206425,0.013933333333333336,126.53814388443624,97.664001932363,0.48084593846025225,2022-05-23 00:16:34
0.4175012039796168,0.013933333333333336,126.69567538728384,98.923210406739,0.4748687468747059,2022-05-23 00:16:35
0.4373346264835782,0.013933333333333336,125.94695778510277,96.93510875315694,0.46756452160667217,2022-05-23 00:16:36
0.4534869876670963,0.013933333333333336,124.1208789637752,98.0063898177686,0.4589499929937049,2022-05-23 00:16:37
0.4655004777371545,0.013933333333333336,121.04632477171735,96.97790162192696,0.44904546387447947,2022-05-23 00:16:38
0.4729697486045777,0.013933333333333336,120.45766991030207,98.32343179804523,0.43787474394248865,2022-05-23 00:16:39
0.47551734508564286,0.013933333333333336,125.65519852873857,96.97742989983962,0.425465074487684,2022-05-23 00:16:40
0.47242726332675705,0.013933333333333336,128.05044656055242,98.66948202434213,0.4118470437323544,2022-05-23 00:16:41
0.46399319798232647,0.013933333333333336,128.25773829613067,98.2551231627578,0.39705449299329704,2022-05-23 00:16:42
0.45088028350496523,0.013933333333333336,126.89139474026621,98.28789628633533,0.3811244139274724,2022-05-23 00:16:43
0.433733120190004,0.013933333333333336,124.56573364744293,97.40843708567978,0.36409683714281343,2022-05-23 00:16:44
0.41317577417550433,0.013933333333333336,121.89506961397804,96.63229350740612,0.3460147124794733,2022-05-23 00:16:45
0.3898117774422396,0.013933333333333336,119.49371421487834,96.1244252387295,0.32692378128964683,2022-05-23 00:16:46
0.3642243746413281,0.013933333333333336,117.97597617501204,96.96548639991073,0.30687275868237224,2022-05-23 00:16:47
0.3369796379721732,0.013933333333333336,117.95616156575332,96.11133799348198,0.2859171990779369,2022-05-23 00:16:48
0.30862553358194794,0.013933333333333336,119.95115626416721,98.0815662341217,0.26411814531523564,2022-05-23 00:16:49
0.2796895473506481,0.013933333333333336,123.89333740207636,98.0110500958085,0.24153891750574893,2022-05-23 00:16:50
0.25067863100098897,0.013933333333333336,128.83832033260865,97.29141534823492,0.2182448816157814,2022-05-23 00:16:51
0.22207920209840284,0.013933333333333336,133.64688315367377,98.30336693297451,0.19430328178662315,2022-05-23 00:16:52
0.19435714405105745,0.013933333333333336,137.17980245287532,97.60802548421869,0.1697830675067779,2022-05-23 00:16:53
0.16795774041503725,0.013933333333333336,138.41061137903807,96.11957977990636,0.14475473642329043,2022-05-23 00:16:54
0.14330529126546337,0.013933333333333336,136.98938907383157,96.40437935388204,0.11929027127324218,2022-05-23 00:16:55
0.12080337447408777,0.013933333333333336,133.58103441219924,96.58024919704475,0.09346287371508676,2022-05-23 00:16:56
0.10079053903148881,0.013933333333333336,129.07596131753618,97.00699140349396,0.06734671781881968,2022-05-23 00:16:57
0.08322920992814924,0.013933333333333336,124.36458327454297,96.15693883931243,0.04101675864350854,2022-05-23 00:16:58
0.06796253034533745,0.013933333333333336,120.27008282952269,97.8153503415011,0.014548538870820086,2022-05-23 00:16:59
